# GGADT v1.2.1
# =-=-=
# Total cross sections as a function of energy
# -----------------------------------
# Parameter values
# -----------------------------------
# a_eff:                               1.00000E-02 micron
# ephot_min:                           6.00000E-01kiloelectron-vo
# ephot_max:                           8.00000E-01kiloelectron-vo
# nephots:                                     200
# Material file:                                   hematite
# geometry:                                        ellipsoid
# angle_mode:                                      file
# angle_file:                                      angles
# ngrain:                                      128
# norientations:                                 1
# grain-axis-z:                        1.25992E-02 micron
# grain-axis-y:                        1.25992E-02 micron
# grain-axis-z:                        6.29961E-03 micron
# grid-width:                          2.51984E-02 micron
# axes-convention:                                 ddscat
# parameter_file_name:                             params_oblate_set.ini
# -----------------------------------
 # [ephot (kiloelectron-volt)] [Q_sca] [Q_abs] [Q_ext]
  6.0000E-01  3.6415E-03  4.9692E-02  5.3334E-02
  6.0100E-01  3.6281E-03  4.9511E-02  5.3139E-02
  6.0200E-01  3.6146E-03  4.9328E-02  5.2943E-02
  6.0300E-01  3.6010E-03  4.9145E-02  5.2746E-02
  6.0400E-01  3.5874E-03  4.8961E-02  5.2549E-02
  6.0500E-01  3.5738E-03  4.8776E-02  5.2350E-02
  6.0600E-01  3.5601E-03  4.8591E-02  5.2151E-02
  6.0700E-01  3.5463E-03  4.8404E-02  5.1950E-02
  6.0800E-01  3.5324E-03  4.8218E-02  5.1750E-02
  6.0900E-01  3.5170E-03  4.8047E-02  5.1564E-02
  6.1000E-01  3.5016E-03  4.7875E-02  5.1377E-02
  6.1100E-01  3.4861E-03  4.7703E-02  5.1189E-02
  6.1200E-01  3.4706E-03  4.7530E-02  5.1000E-02
  6.1300E-01  3.4550E-03  4.7356E-02  5.0811E-02
  6.1400E-01  3.4393E-03  4.7181E-02  5.0620E-02
  6.1500E-01  3.4237E-03  4.7005E-02  5.0428E-02
  6.1600E-01  3.4079E-03  4.6828E-02  5.0236E-02
  6.1700E-01  3.3921E-03  4.6651E-02  5.0043E-02
  6.1800E-01  3.3760E-03  4.6476E-02  4.9852E-02
  6.1900E-01  3.3588E-03  4.6314E-02  4.9672E-02
  6.2000E-01  3.3415E-03  4.6150E-02  4.9492E-02
  6.2100E-01  3.3242E-03  4.5986E-02  4.9310E-02
  6.2200E-01  3.3068E-03  4.5821E-02  4.9128E-02
  6.2300E-01  3.2894E-03  4.5655E-02  4.8945E-02
  6.2400E-01  3.2720E-03  4.5489E-02  4.8761E-02
  6.2500E-01  3.2545E-03  4.5321E-02  4.8576E-02
  6.2600E-01  3.2370E-03  4.5153E-02  4.8390E-02
  6.2700E-01  3.2194E-03  4.4984E-02  4.8204E-02
  6.2800E-01  3.2014E-03  4.4817E-02  4.8019E-02
  6.2900E-01  3.1822E-03  4.4658E-02  4.7841E-02
  6.3000E-01  3.1629E-03  4.4499E-02  4.7662E-02
  6.3100E-01  3.1436E-03  4.4338E-02  4.7482E-02
  6.3200E-01  3.1243E-03  4.4177E-02  4.7301E-02
  6.3300E-01  3.1049E-03  4.4015E-02  4.7120E-02
  6.3400E-01  3.0855E-03  4.3853E-02  4.6938E-02
  6.3500E-01  3.0661E-03  4.3689E-02  4.6755E-02
  6.3600E-01  3.0467E-03  4.3525E-02  4.6572E-02
  6.3700E-01  3.0272E-03  4.3360E-02  4.6387E-02
  6.3800E-01  3.0075E-03  4.3195E-02  4.6203E-02
  6.3900E-01  2.9857E-03  4.3038E-02  4.6024E-02
  6.4000E-01  2.9639E-03  4.2881E-02  4.5845E-02
  6.4100E-01  2.9421E-03  4.2722E-02  4.5664E-02
  6.4200E-01  2.9202E-03  4.2563E-02  4.5483E-02
  6.4300E-01  2.8984E-03  4.2403E-02  4.5302E-02
  6.4400E-01  2.8765E-03  4.2243E-02  4.5119E-02
  6.4500E-01  2.8547E-03  4.2082E-02  4.4936E-02
  6.4600E-01  2.8328E-03  4.1920E-02  4.4752E-02
  6.4700E-01  2.8109E-03  4.1757E-02  4.4568E-02
  6.4800E-01  2.7890E-03  4.1594E-02  4.4383E-02
  6.4900E-01  2.7645E-03  4.1439E-02  4.4203E-02
  6.5000E-01  2.7393E-03  4.1286E-02  4.4025E-02
  6.5100E-01  2.7142E-03  4.1132E-02  4.3846E-02
  6.5200E-01  2.6890E-03  4.0977E-02  4.3666E-02
  6.5300E-01  2.6638E-03  4.0822E-02  4.3486E-02
  6.5400E-01  2.6387E-03  4.0667E-02  4.3305E-02
  6.5500E-01  2.6136E-03  4.0510E-02  4.3124E-02
  6.5600E-01  2.5885E-03  4.0353E-02  4.2942E-02
  6.5700E-01  2.5634E-03  4.0195E-02  4.2759E-02
  6.5800E-01  2.5384E-03  4.0037E-02  4.2575E-02
  6.5900E-01  2.5118E-03  3.9882E-02  4.2394E-02
  6.6000E-01  2.4817E-03  3.9738E-02  4.2219E-02
  6.6100E-01  2.4516E-03  3.9593E-02  4.2044E-02
  6.6200E-01  2.4216E-03  3.9447E-02  4.1869E-02
  6.6300E-01  2.3917E-03  3.9301E-02  4.1692E-02
  6.6400E-01  2.3618E-03  3.9154E-02  4.1516E-02
  6.6500E-01  2.3321E-03  3.9006E-02  4.1338E-02
  6.6600E-01  2.3024E-03  3.8858E-02  4.1160E-02
  6.6700E-01  2.2728E-03  3.8709E-02  4.0982E-02
  6.6800E-01  2.2432E-03  3.8560E-02  4.0803E-02
  6.6900E-01  2.2138E-03  3.8409E-02  4.0623E-02
  6.7000E-01  2.1787E-03  3.8274E-02  4.0453E-02
  6.7100E-01  2.1406E-03  3.8146E-02  4.0287E-02
  6.7200E-01  2.1026E-03  3.8018E-02  4.0121E-02
  6.7300E-01  2.0649E-03  3.7889E-02  3.9954E-02
  6.7400E-01  2.0274E-03  3.7760E-02  3.9788E-02
  6.7500E-01  1.9902E-03  3.7630E-02  3.9621E-02
  6.7600E-01  1.9532E-03  3.7500E-02  3.9453E-02
  6.7700E-01  1.9164E-03  3.7369E-02  3.9286E-02
  6.7800E-01  1.8798E-03  3.7238E-02  3.9118E-02
  6.7900E-01  1.8436E-03  3.7106E-02  3.8949E-02
  6.8000E-01  1.8075E-03  3.6973E-02  3.8781E-02
  6.8100E-01  1.7590E-03  3.6855E-02  3.8614E-02
  6.8200E-01  1.7081E-03  3.6741E-02  3.8449E-02
  6.8300E-01  1.6578E-03  3.6626E-02  3.8283E-02
  6.8400E-01  1.6083E-03  3.6510E-02  3.8118E-02
  6.8500E-01  1.5594E-03  3.6394E-02  3.7953E-02
  6.8600E-01  1.5111E-03  3.6277E-02  3.7788E-02
  6.8700E-01  1.4636E-03  3.6160E-02  3.7624E-02
  6.8800E-01  1.4168E-03  3.6042E-02  3.7459E-02
  6.8900E-01  1.3707E-03  3.5924E-02  3.7295E-02
  6.9000E-01  1.3252E-03  3.5806E-02  3.7131E-02
  6.9100E-01  1.2333E-03  3.4727E-02  3.5961E-02
  6.9200E-01  1.1617E-03  3.5249E-02  3.6410E-02
  6.9300E-01  1.0682E-03  3.4549E-02  3.5617E-02
  6.9400E-01  1.0130E-03  3.4685E-02  3.5698E-02
  6.9500E-01  9.3276E-04  3.5259E-02  3.6191E-02
  6.9600E-01  8.3941E-04  3.4652E-02  3.5491E-02
  6.9700E-01  7.4990E-04  3.4792E-02  3.5542E-02
  6.9800E-01  6.5442E-04  3.4573E-02  3.5228E-02
  6.9900E-01  5.5379E-04  3.4732E-02  3.5285E-02
  7.0000E-01  4.4282E-04  3.4332E-02  3.4775E-02
  7.0100E-01  3.5460E-04  3.5454E-02  3.5808E-02
  7.0200E-01  2.5823E-04  3.5046E-02  3.5304E-02
  7.0300E-01  2.4163E-04  3.6676E-02  3.6918E-02
  7.0400E-01  3.9999E-04  3.9336E-02  3.9736E-02
  7.0500E-01  1.2900E-03  4.8122E-02  4.9412E-02
  7.0600E-01  7.4252E-03  1.2731E-01  1.3474E-01
  7.0700E-01  7.4699E-03  1.8624E-01  1.9371E-01
  7.0800E-01  3.2874E-02  3.9941E-01  4.3228E-01
  7.0900E-01  2.1145E-02  2.6606E-01  2.8721E-01
  7.1000E-01  1.2280E-02  1.7036E-01  1.8263E-01
  7.1100E-01  8.9516E-03  1.3961E-01  1.4856E-01
  7.1200E-01  7.5741E-03  1.1843E-01  1.2601E-01
  7.1300E-01  5.9930E-03  9.7404E-02  1.0340E-01
  7.1400E-01  4.8731E-03  8.8192E-02  9.3065E-02
  7.1500E-01  4.2726E-03  8.3678E-02  8.7951E-02
  7.1600E-01  3.6435E-03  7.6706E-02  8.0350E-02
  7.1700E-01  2.8712E-03  7.1372E-02  7.4243E-02
  7.1800E-01  2.2421E-03  7.5938E-02  7.8180E-02
  7.1900E-01  2.5625E-03  1.0642E-01  1.0898E-01
  7.2000E-01  4.8394E-03  1.3094E-01  1.3578E-01
  7.2100E-01  6.0818E-03  1.5040E-01  1.5648E-01
  7.2200E-01  7.0714E-03  1.3677E-01  1.4384E-01
  7.2300E-01  6.5749E-03  1.1019E-01  1.1676E-01
  7.2400E-01  5.5163E-03  9.1167E-02  9.6683E-02
  7.2500E-01  4.7614E-03  8.1627E-02  8.6389E-02
  7.2600E-01  4.2190E-03  7.7154E-02  8.1373E-02
  7.2700E-01  3.9321E-03  7.5702E-02  7.9634E-02
  7.2800E-01  3.7332E-03  7.4836E-02  7.8570E-02
  7.2900E-01  3.5341E-03  7.3264E-02  7.6798E-02
  7.3000E-01  3.3237E-03  7.1608E-02  7.4932E-02
  7.3100E-01  3.1549E-03  7.2274E-02  7.5429E-02
  7.3200E-01  3.0009E-03  7.2949E-02  7.5950E-02
  7.3300E-01  3.0069E-03  7.5752E-02  7.8759E-02
  7.3400E-01  2.9767E-03  7.7682E-02  8.0658E-02
  7.3500E-01  2.9944E-03  7.9583E-02  8.2577E-02
  7.3600E-01  3.0250E-03  8.1551E-02  8.4576E-02
  7.3700E-01  3.0484E-03  8.3159E-02  8.6208E-02
  7.3800E-01  3.1032E-03  8.5254E-02  8.8357E-02
  7.3900E-01  3.1516E-03  8.6795E-02  8.9947E-02
  7.4000E-01  3.2183E-03  8.8667E-02  9.1885E-02
  7.4100E-01  3.2967E-03  9.0114E-02  9.3411E-02
  7.4200E-01  3.3626E-03  9.1290E-02  9.4652E-02
  7.4300E-01  3.4596E-03  9.2921E-02  9.6381E-02
  7.4400E-01  3.5246E-03  9.3957E-02  9.7482E-02
  7.4500E-01  3.6067E-03  9.4562E-02  9.8169E-02
  7.4600E-01  3.6758E-03  9.5045E-02  9.8721E-02
  7.4700E-01  3.7264E-03  9.5402E-02  9.9128E-02
  7.4800E-01  3.7855E-03  9.5308E-02  9.9094E-02
  7.4900E-01  3.8271E-03  9.5538E-02  9.9365E-02
  7.5000E-01  3.8526E-03  9.5122E-02  9.8975E-02
  7.5100E-01  3.8660E-03  9.4840E-02  9.8706E-02
  7.5200E-01  3.8796E-03  9.4558E-02  9.8437E-02
  7.5300E-01  3.8934E-03  9.4274E-02  9.8167E-02
  7.5400E-01  3.9073E-03  9.3988E-02  9.7896E-02
  7.5500E-01  3.9214E-03  9.3702E-02  9.7624E-02
  7.5600E-01  3.9356E-03  9.3415E-02  9.7350E-02
  7.5700E-01  3.9501E-03  9.3126E-02  9.7076E-02
  7.5800E-01  3.9647E-03  9.2837E-02  9.6801E-02
  7.5900E-01  3.9795E-03  9.2546E-02  9.6525E-02
  7.6000E-01  3.9944E-03  9.2254E-02  9.6248E-02
  7.6100E-01  4.0095E-03  9.1961E-02  9.5970E-02
  7.6200E-01  4.0136E-03  9.1692E-02  9.5706E-02
  7.6300E-01  4.0172E-03  9.1423E-02  9.5441E-02
  7.6400E-01  4.0208E-03  9.1154E-02  9.5175E-02
  7.6500E-01  4.0245E-03  9.0883E-02  9.4908E-02
  7.6600E-01  4.0283E-03  9.0611E-02  9.4640E-02
  7.6700E-01  4.0320E-03  9.0339E-02  9.4371E-02
  7.6800E-01  4.0359E-03  9.0065E-02  9.4101E-02
  7.6900E-01  4.0397E-03  8.9790E-02  9.3830E-02
  7.7000E-01  4.0437E-03  8.9514E-02  9.3558E-02
  7.7100E-01  4.0476E-03  8.9237E-02  9.3284E-02
  7.7200E-01  4.0516E-03  8.8959E-02  9.3010E-02
  7.7300E-01  4.0557E-03  8.8679E-02  9.2735E-02
  7.7400E-01  4.0566E-03  8.8417E-02  9.2474E-02
  7.7500E-01  4.0559E-03  8.8163E-02  9.2219E-02
  7.7600E-01  4.0551E-03  8.7908E-02  9.1964E-02
  7.7700E-01  4.0544E-03  8.7653E-02  9.1707E-02
  7.7800E-01  4.0536E-03  8.7396E-02  9.1449E-02
  7.7900E-01  4.0529E-03  8.7138E-02  9.1191E-02
  7.8000E-01  4.0522E-03  8.6879E-02  9.0932E-02
  7.8100E-01  4.0515E-03  8.6620E-02  9.0671E-02
  7.8200E-01  4.0508E-03  8.6359E-02  9.0410E-02
  7.8300E-01  4.0501E-03  8.6097E-02  9.0147E-02
  7.8400E-01  4.0494E-03  8.5834E-02  8.9884E-02
  7.8500E-01  4.0487E-03  8.5571E-02  8.9619E-02
  7.8600E-01  4.0475E-03  8.5310E-02  8.9358E-02
  7.8700E-01  4.0428E-03  8.5076E-02  8.9119E-02
  7.8800E-01  4.0381E-03  8.4842E-02  8.8880E-02
  7.8900E-01  4.0334E-03  8.4606E-02  8.8639E-02
  7.9000E-01  4.0287E-03  8.4369E-02  8.8398E-02
  7.9100E-01  4.0239E-03  8.4131E-02  8.8155E-02
  7.9200E-01  4.0192E-03  8.3893E-02  8.7912E-02
  7.9300E-01  4.0144E-03  8.3653E-02  8.7668E-02
  7.9400E-01  4.0096E-03  8.3413E-02  8.7423E-02
  7.9500E-01  4.0048E-03  8.3172E-02  8.7177E-02
  7.9600E-01  4.0000E-03  8.2930E-02  8.6930E-02
  7.9700E-01  3.9952E-03  8.2687E-02  8.6682E-02
  7.9800E-01  3.9903E-03  8.2443E-02  8.6433E-02
  7.9900E-01  3.9868E-03  8.2259E-02  8.6246E-02
