# GGADT v1.2.1
# =-=-=
# Total cross sections as a function of energy
# -----------------------------------
# Parameter values
# -----------------------------------
# a_eff:                               7.12581E-01 micron
# ephot_min:                           6.00000E-01kiloelectron-vo
# ephot_max:                           8.00000E-01kiloelectron-vo
# nephots:                                     200
# Material file:                                   metallic_iron
# geometry:                                        ellipsoid
# angle_mode:                                      random
# ngrain:                                      128
# norientations:                                 1
# grain-axis-z:                        7.97156E-01 micron
# grain-axis-y:                        7.97156E-01 micron
# grain-axis-z:                        5.69397E-01 micron
# grid-width:                          1.59431E+00 micron
# axes-convention:                                 ddscat
# parameter_file_name:                             large_params_random.ini
# -----------------------------------
 # [ephot (kiloelectron-volt)] [Q_sca] [Q_abs] [Q_ext]
  6.0000E-01  1.1020E+00  8.2127E-01  1.9233E+00
  6.0100E-01  1.0999E+00  8.2054E-01  1.9204E+00
  6.0200E-01  1.0978E+00  8.1981E-01  1.9176E+00
  6.0300E-01  1.0957E+00  8.1906E-01  1.9148E+00
  6.0400E-01  1.0937E+00  8.1830E-01  1.9120E+00
  6.0500E-01  1.0918E+00  8.1754E-01  1.9093E+00
  6.0600E-01  1.0899E+00  8.1677E-01  1.9067E+00
  6.0700E-01  1.0881E+00  8.1599E-01  1.9040E+00
  6.0800E-01  1.0863E+00  8.1520E-01  1.9015E+00
  6.0900E-01  1.0846E+00  8.1447E-01  1.8990E+00
  6.1000E-01  1.0829E+00  8.1374E-01  1.8967E+00
  6.1100E-01  1.0814E+00  8.1299E-01  1.8944E+00
  6.1200E-01  1.0800E+00  8.1224E-01  1.8922E+00
  6.1300E-01  1.0787E+00  8.1148E-01  1.8902E+00
  6.1400E-01  1.0776E+00  8.1071E-01  1.8883E+00
  6.1500E-01  1.0766E+00  8.0994E-01  1.8865E+00
  6.1600E-01  1.0758E+00  8.0915E-01  1.8849E+00
  6.1700E-01  1.0751E+00  8.0835E-01  1.8834E+00
  6.1800E-01  1.0746E+00  8.0757E-01  1.8822E+00
  6.1900E-01  1.0743E+00  8.0682E-01  1.8811E+00
  6.2000E-01  1.0741E+00  8.0608E-01  1.8802E+00
  6.2100E-01  1.0742E+00  8.0532E-01  1.8796E+00
  6.2200E-01  1.0746E+00  8.0455E-01  1.8791E+00
  6.2300E-01  1.0752E+00  8.0378E-01  1.8790E+00
  6.2400E-01  1.0760E+00  8.0299E-01  1.8790E+00
  6.2500E-01  1.0772E+00  8.0220E-01  1.8794E+00
  6.2600E-01  1.0786E+00  8.0140E-01  1.8800E+00
  6.2700E-01  1.0803E+00  8.0059E-01  1.8809E+00
  6.2800E-01  1.0823E+00  7.9978E-01  1.8821E+00
  6.2900E-01  1.0847E+00  7.9900E-01  1.8837E+00
  6.3000E-01  1.0875E+00  7.9821E-01  1.8857E+00
  6.3100E-01  1.0906E+00  7.9741E-01  1.8880E+00
  6.3200E-01  1.0942E+00  7.9661E-01  1.8908E+00
  6.3300E-01  1.0981E+00  7.9579E-01  1.8938E+00
  6.3400E-01  1.1023E+00  7.9497E-01  1.8973E+00
  6.3500E-01  1.1070E+00  7.9413E-01  1.9012E+00
  6.3600E-01  1.1121E+00  7.9329E-01  1.9054E+00
  6.3700E-01  1.1176E+00  7.9244E-01  1.9101E+00
  6.3800E-01  1.1236E+00  7.9158E-01  1.9152E+00
  6.3900E-01  1.1305E+00  7.9074E-01  1.9212E+00
  6.4000E-01  1.1378E+00  7.8990E-01  1.9277E+00
  6.4100E-01  1.1457E+00  7.8904E-01  1.9347E+00
  6.4200E-01  1.1540E+00  7.8818E-01  1.9422E+00
  6.4300E-01  1.1628E+00  7.8731E-01  1.9501E+00
  6.4400E-01  1.1721E+00  7.8643E-01  1.9585E+00
  6.4500E-01  1.1818E+00  7.8554E-01  1.9674E+00
  6.4600E-01  1.1920E+00  7.8464E-01  1.9767E+00
  6.4700E-01  1.2026E+00  7.8373E-01  1.9863E+00
  6.4800E-01  1.2136E+00  7.8281E-01  1.9964E+00
  6.4900E-01  1.2262E+00  7.8192E-01  2.0082E+00
  6.5000E-01  1.2396E+00  7.8104E-01  2.0207E+00
  6.5100E-01  1.2534E+00  7.8015E-01  2.0336E+00
  6.5200E-01  1.2676E+00  7.7924E-01  2.0468E+00
  6.5300E-01  1.2821E+00  7.7833E-01  2.0604E+00
  6.5400E-01  1.2969E+00  7.7741E-01  2.0743E+00
  6.5500E-01  1.3119E+00  7.7648E-01  2.0884E+00
  6.5600E-01  1.3271E+00  7.7554E-01  2.1026E+00
  6.5700E-01  1.3424E+00  7.7459E-01  2.1169E+00
  6.5800E-01  1.3577E+00  7.7363E-01  2.1313E+00
  6.5900E-01  1.3738E+00  7.7268E-01  2.1465E+00
  6.6000E-01  1.3918E+00  7.7180E-01  2.1636E+00
  6.6100E-01  1.4094E+00  7.7090E-01  2.1803E+00
  6.6200E-01  1.4265E+00  7.6999E-01  2.1965E+00
  6.6300E-01  1.4430E+00  7.6908E-01  2.2120E+00
  6.6400E-01  1.4586E+00  7.6815E-01  2.2267E+00
  6.6500E-01  1.4733E+00  7.6721E-01  2.2405E+00
  6.6600E-01  1.4868E+00  7.6627E-01  2.2531E+00
  6.6700E-01  1.4992E+00  7.6531E-01  2.2645E+00
  6.6800E-01  1.5101E+00  7.6435E-01  2.2744E+00
  6.6900E-01  1.5194E+00  7.6337E-01  2.2828E+00
  6.7000E-01  1.5277E+00  7.6249E-01  2.2902E+00
  6.7100E-01  1.5332E+00  7.6166E-01  2.2949E+00
  6.7200E-01  1.5348E+00  7.6082E-01  2.2957E+00
  6.7300E-01  1.5324E+00  7.5997E-01  2.2924E+00
  6.7400E-01  1.5257E+00  7.5911E-01  2.2848E+00
  6.7500E-01  1.5145E+00  7.5824E-01  2.2727E+00
  6.7600E-01  1.4987E+00  7.5737E-01  2.2560E+00
  6.7700E-01  1.4781E+00  7.5648E-01  2.2346E+00
  6.7800E-01  1.4529E+00  7.5559E-01  2.2084E+00
  6.7900E-01  1.4229E+00  7.5469E-01  2.1776E+00
  6.8000E-01  1.3883E+00  7.5378E-01  2.1421E+00
  6.8100E-01  1.3264E+00  7.5298E-01  2.0793E+00
  6.8200E-01  1.2492E+00  7.5219E-01  2.0014E+00
  6.8300E-01  1.1630E+00  7.5139E-01  1.9144E+00
  6.8400E-01  1.0698E+00  7.5059E-01  1.8204E+00
  6.8500E-01  9.7168E-01  7.4978E-01  1.7215E+00
  6.8600E-01  8.7124E-01  7.4896E-01  1.6202E+00
  6.8700E-01  7.7119E-01  7.4813E-01  1.5193E+00
  6.8800E-01  6.7436E-01  7.4730E-01  1.4217E+00
  6.8900E-01  5.8359E-01  7.4646E-01  1.3300E+00
  6.9000E-01  5.0167E-01  7.4561E-01  1.2473E+00
  6.9100E-01  4.1731E-01  7.4969E-01  1.1670E+00
  6.9200E-01  3.5455E-01  7.4823E-01  1.1028E+00
  6.9300E-01  3.1566E-01  7.4749E-01  1.0632E+00
  6.9400E-01  3.3694E-01  7.5414E-01  1.0911E+00
  6.9500E-01  4.0458E-01  7.4504E-01  1.1496E+00
  6.9600E-01  5.8057E-01  7.4598E-01  1.3266E+00
  6.9700E-01  8.2653E-01  7.4740E-01  1.5739E+00
  6.9800E-01  1.1320E+00  7.5001E-01  1.8821E+00
  6.9900E-01  1.4229E+00  7.4998E-01  2.1729E+00
  7.0000E-01  1.5300E+00  7.6291E-01  2.2930E+00
  7.0100E-01  1.4084E+00  7.5728E-01  2.1656E+00
  7.0200E-01  1.1103E+00  7.8476E-01  1.8950E+00
  7.0300E-01  1.1737E+00  7.9679E-01  1.9705E+00
  7.0400E-01  1.0661E+00  8.5370E-01  1.9199E+00
  7.0500E-01  9.9958E-01  9.3024E-01  1.9298E+00
  7.0600E-01  9.6510E-01  9.6191E-01  1.9270E+00
  7.0700E-01  9.6146E-01  9.6281E-01  1.9243E+00
  7.0800E-01  9.6027E-01  9.6255E-01  1.9228E+00
  7.0900E-01  9.5983E-01  9.6197E-01  1.9218E+00
  7.1000E-01  9.6002E-01  9.6122E-01  1.9212E+00
  7.1100E-01  9.6015E-01  9.6019E-01  1.9203E+00
  7.1200E-01  9.5756E-01  9.5927E-01  1.9168E+00
  7.1300E-01  9.5423E-01  9.5884E-01  1.9131E+00
  7.1400E-01  9.5178E-01  9.5842E-01  1.9102E+00
  7.1500E-01  9.4713E-01  9.5776E-01  1.9049E+00
  7.1600E-01  9.3807E-01  9.5719E-01  1.8953E+00
  7.1700E-01  9.2472E-01  9.5699E-01  1.8817E+00
  7.1800E-01  9.3769E-01  9.5867E-01  1.8964E+00
  7.1900E-01  9.5361E-01  9.6153E-01  1.9151E+00
  7.2000E-01  9.5665E-01  9.6199E-01  1.9186E+00
  7.2100E-01  9.5887E-01  9.6158E-01  1.9205E+00
  7.2200E-01  9.6062E-01  9.6090E-01  1.9215E+00
  7.2300E-01  9.6192E-01  9.6022E-01  1.9221E+00
  7.2400E-01  9.6282E-01  9.5956E-01  1.9224E+00
  7.2500E-01  9.6280E-01  9.5916E-01  1.9220E+00
  7.2600E-01  9.6282E-01  9.5889E-01  1.9217E+00
  7.2700E-01  9.6300E-01  9.5868E-01  1.9217E+00
  7.2800E-01  9.6333E-01  9.5838E-01  1.9217E+00
  7.2900E-01  9.6318E-01  9.5823E-01  1.9214E+00
  7.3000E-01  9.6323E-01  9.5812E-01  1.9214E+00
  7.3100E-01  9.6331E-01  9.5796E-01  1.9213E+00
  7.3200E-01  9.6333E-01  9.5785E-01  1.9212E+00
  7.3300E-01  9.6333E-01  9.5777E-01  1.9211E+00
  7.3400E-01  9.6317E-01  9.5771E-01  1.9209E+00
  7.3500E-01  9.6351E-01  9.5759E-01  1.9211E+00
  7.3600E-01  9.6338E-01  9.5761E-01  1.9210E+00
  7.3700E-01  9.6358E-01  9.5761E-01  1.9212E+00
  7.3800E-01  9.6423E-01  9.5741E-01  1.9216E+00
  7.3900E-01  9.6464E-01  9.5722E-01  1.9219E+00
  7.4000E-01  9.6485E-01  9.5715E-01  1.9220E+00
  7.4100E-01  9.6484E-01  9.5711E-01  1.9219E+00
  7.4200E-01  9.6488E-01  9.5704E-01  1.9219E+00
  7.4300E-01  9.6500E-01  9.5701E-01  1.9220E+00
  7.4400E-01  9.6507E-01  9.5700E-01  1.9221E+00
  7.4500E-01  9.6543E-01  9.5691E-01  1.9223E+00
  7.4600E-01  9.6554E-01  9.5687E-01  1.9224E+00
  7.4700E-01  9.6565E-01  9.5684E-01  1.9225E+00
  7.4800E-01  9.6576E-01  9.5680E-01  1.9226E+00
  7.4900E-01  9.6588E-01  9.5676E-01  1.9226E+00
  7.5000E-01  9.6605E-01  9.5672E-01  1.9228E+00
  7.5100E-01  9.6622E-01  9.5668E-01  1.9229E+00
  7.5200E-01  9.6640E-01  9.5664E-01  1.9230E+00
  7.5300E-01  9.6657E-01  9.5661E-01  1.9232E+00
  7.5400E-01  9.6674E-01  9.5657E-01  1.9233E+00
  7.5500E-01  9.6692E-01  9.5653E-01  1.9234E+00
  7.5600E-01  9.6710E-01  9.5649E-01  1.9236E+00
  7.5700E-01  9.6728E-01  9.5645E-01  1.9237E+00
  7.5800E-01  9.6746E-01  9.5640E-01  1.9239E+00
  7.5900E-01  9.6764E-01  9.5636E-01  1.9240E+00
  7.6000E-01  9.6783E-01  9.5632E-01  1.9241E+00
  7.6100E-01  9.6801E-01  9.5628E-01  1.9243E+00
  7.6200E-01  9.6818E-01  9.5624E-01  1.9244E+00
  7.6300E-01  9.6836E-01  9.5620E-01  1.9246E+00
  7.6400E-01  9.6853E-01  9.5616E-01  1.9247E+00
  7.6500E-01  9.6871E-01  9.5612E-01  1.9248E+00
  7.6600E-01  9.6889E-01  9.5607E-01  1.9250E+00
  7.6700E-01  9.6906E-01  9.5603E-01  1.9251E+00
  7.6800E-01  9.6924E-01  9.5599E-01  1.9252E+00
  7.6900E-01  9.6943E-01  9.5595E-01  1.9254E+00
  7.7000E-01  9.6961E-01  9.5590E-01  1.9255E+00
  7.7100E-01  9.6979E-01  9.5586E-01  1.9257E+00
  7.7200E-01  9.6998E-01  9.5581E-01  1.9258E+00
  7.7300E-01  9.7017E-01  9.5577E-01  1.9259E+00
  7.7400E-01  9.7033E-01  9.5572E-01  1.9261E+00
  7.7500E-01  9.7049E-01  9.5568E-01  1.9262E+00
  7.7600E-01  9.7065E-01  9.5564E-01  1.9263E+00
  7.7700E-01  9.7082E-01  9.5560E-01  1.9264E+00
  7.7800E-01  9.7098E-01  9.5555E-01  1.9265E+00
  7.7900E-01  9.7114E-01  9.5551E-01  1.9267E+00
  7.8000E-01  9.7131E-01  9.5547E-01  1.9268E+00
  7.8100E-01  9.7148E-01  9.5542E-01  1.9269E+00
  7.8200E-01  9.7165E-01  9.5538E-01  1.9270E+00
  7.8300E-01  9.7181E-01  9.5533E-01  1.9271E+00
  7.8400E-01  9.7199E-01  9.5528E-01  1.9273E+00
  7.8500E-01  9.7216E-01  9.5523E-01  1.9274E+00
  7.8600E-01  9.7233E-01  9.5519E-01  1.9275E+00
  7.8700E-01  9.7246E-01  9.5515E-01  1.9276E+00
  7.8800E-01  9.7259E-01  9.5510E-01  1.9277E+00
  7.8900E-01  9.7272E-01  9.5506E-01  1.9278E+00
  7.9000E-01  9.7286E-01  9.5502E-01  1.9279E+00
  7.9100E-01  9.7300E-01  9.5497E-01  1.9280E+00
  7.9200E-01  9.7313E-01  9.5493E-01  1.9281E+00
  7.9300E-01  9.7327E-01  9.5488E-01  1.9282E+00
  7.9400E-01  9.7341E-01  9.5483E-01  1.9282E+00
  7.9500E-01  9.7355E-01  9.5479E-01  1.9283E+00
  7.9600E-01  9.7370E-01  9.5474E-01  1.9284E+00
  7.9700E-01  9.7384E-01  9.5469E-01  1.9285E+00
  7.9800E-01  9.7399E-01  9.5465E-01  1.9286E+00
  7.9900E-01  9.7409E-01  9.5461E-01  1.9287E+00
