# GGADT v1.2.1
# =-=-=
# Total cross sections as a function of energy
# -----------------------------------
# Parameter values
# -----------------------------------
# a_eff:                               8.40323E-01 micron
# ephot_min:                           6.00000E-01kiloelectron-vo
# ephot_max:                           8.00000E-01kiloelectron-vo
# nephots:                                     200
# Material file:                                   metallic_iron
# geometry:                                        ellipsoid
# angle_mode:                                      random
# ngrain:                                      128
# norientations:                                 1
# grain-axis-z:                        9.40060E-01 micron
# grain-axis-y:                        9.40060E-01 micron
# grain-axis-z:                        6.71471E-01 micron
# grid-width:                          1.88012E+00 micron
# axes-convention:                                 ddscat
# parameter_file_name:                             large_params_random.ini
# -----------------------------------
 # [ephot (kiloelectron-volt)] [Q_sca] [Q_abs] [Q_ext]
  6.0000E-01  1.0711E+00  8.1816E-01  1.8893E+00
  6.0100E-01  1.0723E+00  8.1763E-01  1.8899E+00
  6.0200E-01  1.0733E+00  8.1709E-01  1.8904E+00
  6.0300E-01  1.0743E+00  8.1654E-01  1.8908E+00
  6.0400E-01  1.0751E+00  8.1598E-01  1.8911E+00
  6.0500E-01  1.0758E+00  8.1542E-01  1.8913E+00
  6.0600E-01  1.0765E+00  8.1485E-01  1.8913E+00
  6.0700E-01  1.0769E+00  8.1427E-01  1.8912E+00
  6.0800E-01  1.0773E+00  8.1369E-01  1.8910E+00
  6.0900E-01  1.0775E+00  8.1315E-01  1.8906E+00
  6.1000E-01  1.0775E+00  8.1260E-01  1.8901E+00
  6.1100E-01  1.0773E+00  8.1205E-01  1.8894E+00
  6.1200E-01  1.0771E+00  8.1149E-01  1.8886E+00
  6.1300E-01  1.0767E+00  8.1093E-01  1.8876E+00
  6.1400E-01  1.0761E+00  8.1036E-01  1.8865E+00
  6.1500E-01  1.0755E+00  8.0978E-01  1.8852E+00
  6.1600E-01  1.0746E+00  8.0919E-01  1.8838E+00
  6.1700E-01  1.0737E+00  8.0860E-01  1.8823E+00
  6.1800E-01  1.0725E+00  8.0801E-01  1.8805E+00
  6.1900E-01  1.0711E+00  8.0745E-01  1.8786E+00
  6.2000E-01  1.0696E+00  8.0689E-01  1.8765E+00
  6.2100E-01  1.0679E+00  8.0632E-01  1.8742E+00
  6.2200E-01  1.0661E+00  8.0575E-01  1.8719E+00
  6.2300E-01  1.0642E+00  8.0517E-01  1.8694E+00
  6.2400E-01  1.0621E+00  8.0458E-01  1.8667E+00
  6.2500E-01  1.0600E+00  8.0398E-01  1.8639E+00
  6.2600E-01  1.0577E+00  8.0338E-01  1.8611E+00
  6.2700E-01  1.0553E+00  8.0277E-01  1.8581E+00
  6.2800E-01  1.0528E+00  8.0216E-01  1.8550E+00
  6.2900E-01  1.0501E+00  8.0157E-01  1.8516E+00
  6.3000E-01  1.0472E+00  8.0097E-01  1.8482E+00
  6.3100E-01  1.0444E+00  8.0037E-01  1.8448E+00
  6.3200E-01  1.0415E+00  7.9976E-01  1.8412E+00
  6.3300E-01  1.0386E+00  7.9914E-01  1.8377E+00
  6.3400E-01  1.0357E+00  7.9851E-01  1.8342E+00
  6.3500E-01  1.0328E+00  7.9788E-01  1.8307E+00
  6.3600E-01  1.0299E+00  7.9724E-01  1.8272E+00
  6.3700E-01  1.0272E+00  7.9659E-01  1.8238E+00
  6.3800E-01  1.0245E+00  7.9593E-01  1.8204E+00
  6.3900E-01  1.0216E+00  7.9530E-01  1.8169E+00
  6.4000E-01  1.0189E+00  7.9465E-01  1.8136E+00
  6.4100E-01  1.0164E+00  7.9400E-01  1.8104E+00
  6.4200E-01  1.0142E+00  7.9334E-01  1.8075E+00
  6.4300E-01  1.0122E+00  7.9267E-01  1.8049E+00
  6.4400E-01  1.0105E+00  7.9199E-01  1.8025E+00
  6.4500E-01  1.0092E+00  7.9131E-01  1.8005E+00
  6.4600E-01  1.0082E+00  7.9062E-01  1.7988E+00
  6.4700E-01  1.0076E+00  7.8992E-01  1.7975E+00
  6.4800E-01  1.0074E+00  7.8921E-01  1.7966E+00
  6.4900E-01  1.0078E+00  7.8852E-01  1.7963E+00
  6.5000E-01  1.0087E+00  7.8784E-01  1.7966E+00
  6.5100E-01  1.0104E+00  7.8715E-01  1.7975E+00
  6.5200E-01  1.0127E+00  7.8646E-01  1.7992E+00
  6.5300E-01  1.0159E+00  7.8575E-01  1.8016E+00
  6.5400E-01  1.0198E+00  7.8504E-01  1.8048E+00
  6.5500E-01  1.0244E+00  7.8431E-01  1.8088E+00
  6.5600E-01  1.0299E+00  7.8358E-01  1.8135E+00
  6.5700E-01  1.0363E+00  7.8284E-01  1.8191E+00
  6.5800E-01  1.0434E+00  7.8209E-01  1.8255E+00
  6.5900E-01  1.0519E+00  7.8136E-01  1.8332E+00
  6.6000E-01  1.0626E+00  7.8066E-01  1.8433E+00
  6.6100E-01  1.0745E+00  7.7996E-01  1.8544E+00
  6.6200E-01  1.0874E+00  7.7925E-01  1.8666E+00
  6.6300E-01  1.1013E+00  7.7854E-01  1.8798E+00
  6.6400E-01  1.1161E+00  7.7781E-01  1.8939E+00
  6.6500E-01  1.1316E+00  7.7708E-01  1.9087E+00
  6.6600E-01  1.1479E+00  7.7634E-01  1.9242E+00
  6.6700E-01  1.1646E+00  7.7558E-01  1.9401E+00
  6.6800E-01  1.1816E+00  7.7483E-01  1.9564E+00
  6.6900E-01  1.1988E+00  7.7406E-01  1.9729E+00
  6.7000E-01  1.2194E+00  7.7336E-01  1.9927E+00
  6.7100E-01  1.2412E+00  7.7270E-01  2.0139E+00
  6.7200E-01  1.2618E+00  7.7204E-01  2.0339E+00
  6.7300E-01  1.2806E+00  7.7137E-01  2.0520E+00
  6.7400E-01  1.2971E+00  7.7069E-01  2.0678E+00
  6.7500E-01  1.3106E+00  7.7000E-01  2.0806E+00
  6.7600E-01  1.3207E+00  7.6931E-01  2.0900E+00
  6.7700E-01  1.3269E+00  7.6861E-01  2.0955E+00
  6.7800E-01  1.3286E+00  7.6790E-01  2.0965E+00
  6.7900E-01  1.3255E+00  7.6718E-01  2.0927E+00
  6.8000E-01  1.3173E+00  7.6646E-01  2.0838E+00
  6.8100E-01  1.2933E+00  7.6581E-01  2.0592E+00
  6.8200E-01  1.2531E+00  7.6518E-01  2.0183E+00
  6.8300E-01  1.1985E+00  7.6455E-01  1.9630E+00
  6.8400E-01  1.1306E+00  7.6391E-01  1.8945E+00
  6.8500E-01  1.0513E+00  7.6326E-01  1.8145E+00
  6.8600E-01  9.6308E-01  7.6260E-01  1.7257E+00
  6.8700E-01  8.6921E-01  7.6194E-01  1.6312E+00
  6.8800E-01  7.7333E-01  7.6127E-01  1.5346E+00
  6.8900E-01  6.7941E-01  7.6060E-01  1.4400E+00
  6.9000E-01  5.9158E-01  7.5992E-01  1.3515E+00
  6.9100E-01  4.9739E-01  7.6319E-01  1.2606E+00
  6.9200E-01  4.2651E-01  7.6202E-01  1.1885E+00
  6.9300E-01  3.8181E-01  7.6143E-01  1.1432E+00
  6.9400E-01  4.0546E-01  7.6674E-01  1.1722E+00
  6.9500E-01  4.8390E-01  7.5946E-01  1.2434E+00
  6.9600E-01  6.7635E-01  7.6022E-01  1.4366E+00
  6.9700E-01  9.2235E-01  7.6135E-01  1.6837E+00
  6.9800E-01  1.1777E+00  7.6344E-01  1.9411E+00
  6.9900E-01  1.3334E+00  7.6342E-01  2.0968E+00
  7.0000E-01  1.2531E+00  7.7369E-01  2.0268E+00
  7.0100E-01  1.0642E+00  7.6924E-01  1.8334E+00
  7.0200E-01  1.0391E+00  7.9072E-01  1.8298E+00
  7.0300E-01  1.0781E+00  7.9990E-01  1.8780E+00
  7.0400E-01  1.0075E+00  8.4143E-01  1.8489E+00
  7.0500E-01  9.3579E-01  8.9184E-01  1.8276E+00
  7.0600E-01  9.1365E-01  9.1150E-01  1.8251E+00
  7.0700E-01  9.1119E-01  9.1208E-01  1.8233E+00
  7.0800E-01  9.1045E-01  9.1190E-01  1.8224E+00
  7.0900E-01  9.1015E-01  9.1154E-01  1.8217E+00
  7.1000E-01  9.1022E-01  9.1106E-01  1.8213E+00
  7.1100E-01  9.1022E-01  9.1041E-01  1.8206E+00
  7.1200E-01  9.0857E-01  9.0982E-01  1.8184E+00
  7.1300E-01  9.0650E-01  9.0955E-01  1.8161E+00
  7.1400E-01  9.0499E-01  9.0929E-01  1.8143E+00
  7.1500E-01  9.0214E-01  9.0887E-01  1.8110E+00
  7.1600E-01  8.9661E-01  9.0851E-01  1.8051E+00
  7.1700E-01  8.8843E-01  9.0839E-01  1.7968E+00
  7.1800E-01  8.9638E-01  9.0944E-01  1.8058E+00
  7.1900E-01  9.0624E-01  9.1125E-01  1.8175E+00
  7.2000E-01  9.0815E-01  9.1155E-01  1.8197E+00
  7.2100E-01  9.0952E-01  9.1129E-01  1.8208E+00
  7.2200E-01  9.1057E-01  9.1085E-01  1.8214E+00
  7.2300E-01  9.1133E-01  9.1042E-01  1.8217E+00
  7.2400E-01  9.1184E-01  9.1001E-01  1.8218E+00
  7.2500E-01  9.1180E-01  9.0975E-01  1.8216E+00
  7.2600E-01  9.1180E-01  9.0958E-01  1.8214E+00
  7.2700E-01  9.1190E-01  9.0945E-01  1.8213E+00
  7.2800E-01  9.1210E-01  9.0926E-01  1.8214E+00
  7.2900E-01  9.1200E-01  9.0916E-01  1.8212E+00
  7.3000E-01  9.1203E-01  9.0910E-01  1.8211E+00
  7.3100E-01  9.1207E-01  9.0900E-01  1.8211E+00
  7.3200E-01  9.1208E-01  9.0893E-01  1.8210E+00
  7.3300E-01  9.1207E-01  9.0888E-01  1.8210E+00
  7.3400E-01  9.1198E-01  9.0884E-01  1.8208E+00
  7.3500E-01  9.1218E-01  9.0876E-01  1.8209E+00
  7.3600E-01  9.1210E-01  9.0878E-01  1.8209E+00
  7.3700E-01  9.1223E-01  9.0878E-01  1.8210E+00
  7.3800E-01  9.1262E-01  9.0865E-01  1.8213E+00
  7.3900E-01  9.1287E-01  9.0853E-01  1.8214E+00
  7.4000E-01  9.1300E-01  9.0849E-01  1.8215E+00
  7.4100E-01  9.1299E-01  9.0846E-01  1.8215E+00
  7.4200E-01  9.1302E-01  9.0842E-01  1.8214E+00
  7.4300E-01  9.1309E-01  9.0840E-01  1.8215E+00
  7.4400E-01  9.1313E-01  9.0839E-01  1.8215E+00
  7.4500E-01  9.1335E-01  9.0834E-01  1.8217E+00
  7.4600E-01  9.1342E-01  9.0832E-01  1.8217E+00
  7.4700E-01  9.1349E-01  9.0829E-01  1.8218E+00
  7.4800E-01  9.1356E-01  9.0827E-01  1.8218E+00
  7.4900E-01  9.1363E-01  9.0824E-01  1.8219E+00
  7.5000E-01  9.1373E-01  9.0822E-01  1.8220E+00
  7.5100E-01  9.1384E-01  9.0819E-01  1.8220E+00
  7.5200E-01  9.1394E-01  9.0817E-01  1.8221E+00
  7.5300E-01  9.1405E-01  9.0815E-01  1.8222E+00
  7.5400E-01  9.1416E-01  9.0812E-01  1.8223E+00
  7.5500E-01  9.1427E-01  9.0810E-01  1.8224E+00
  7.5600E-01  9.1438E-01  9.0807E-01  1.8224E+00
  7.5700E-01  9.1449E-01  9.0805E-01  1.8225E+00
  7.5800E-01  9.1460E-01  9.0802E-01  1.8226E+00
  7.5900E-01  9.1471E-01  9.0799E-01  1.8227E+00
  7.6000E-01  9.1482E-01  9.0797E-01  1.8228E+00
  7.6100E-01  9.1494E-01  9.0794E-01  1.8229E+00
  7.6200E-01  9.1504E-01  9.0792E-01  1.8230E+00
  7.6300E-01  9.1515E-01  9.0789E-01  1.8230E+00
  7.6400E-01  9.1526E-01  9.0787E-01  1.8231E+00
  7.6500E-01  9.1537E-01  9.0784E-01  1.8232E+00
  7.6600E-01  9.1548E-01  9.0781E-01  1.8233E+00
  7.6700E-01  9.1559E-01  9.0779E-01  1.8234E+00
  7.6800E-01  9.1570E-01  9.0776E-01  1.8235E+00
  7.6900E-01  9.1581E-01  9.0773E-01  1.8235E+00
  7.7000E-01  9.1592E-01  9.0771E-01  1.8236E+00
  7.7100E-01  9.1604E-01  9.0768E-01  1.8237E+00
  7.7200E-01  9.1615E-01  9.0765E-01  1.8238E+00
  7.7300E-01  9.1627E-01  9.0762E-01  1.8239E+00
  7.7400E-01  9.1637E-01  9.0760E-01  1.8240E+00
  7.7500E-01  9.1647E-01  9.0757E-01  1.8240E+00
  7.7600E-01  9.1657E-01  9.0754E-01  1.8241E+00
  7.7700E-01  9.1667E-01  9.0752E-01  1.8242E+00
  7.7800E-01  9.1677E-01  9.0749E-01  1.8243E+00
  7.7900E-01  9.1688E-01  9.0746E-01  1.8243E+00
  7.8000E-01  9.1698E-01  9.0744E-01  1.8244E+00
  7.8100E-01  9.1708E-01  9.0741E-01  1.8245E+00
  7.8200E-01  9.1719E-01  9.0738E-01  1.8246E+00
  7.8300E-01  9.1729E-01  9.0735E-01  1.8246E+00
  7.8400E-01  9.1740E-01  9.0732E-01  1.8247E+00
  7.8500E-01  9.1750E-01  9.0729E-01  1.8248E+00
  7.8600E-01  9.1761E-01  9.0726E-01  1.8249E+00
  7.8700E-01  9.1769E-01  9.0724E-01  1.8249E+00
  7.8800E-01  9.1777E-01  9.0721E-01  1.8250E+00
  7.8900E-01  9.1786E-01  9.0718E-01  1.8250E+00
  7.9000E-01  9.1794E-01  9.0715E-01  1.8251E+00
  7.9100E-01  9.1803E-01  9.0713E-01  1.8252E+00
  7.9200E-01  9.1811E-01  9.0710E-01  1.8252E+00
  7.9300E-01  9.1820E-01  9.0707E-01  1.8253E+00
  7.9400E-01  9.1829E-01  9.0704E-01  1.8253E+00
  7.9500E-01  9.1838E-01  9.0701E-01  1.8254E+00
  7.9600E-01  9.1846E-01  9.0698E-01  1.8254E+00
  7.9700E-01  9.1855E-01  9.0695E-01  1.8255E+00
  7.9800E-01  9.1865E-01  9.0692E-01  1.8256E+00
  7.9900E-01  9.1871E-01  9.0690E-01  1.8256E+00
