# GGADT v1.2.1
# =-=-=
# Total cross sections as a function of energy
# -----------------------------------
# Parameter values
# -----------------------------------
# a_eff:                               2.97419E-01 micron
# ephot_min:                           6.00000E-01kiloelectron-vo
# ephot_max:                           8.00000E-01kiloelectron-vo
# nephots:                                     200
# Material file:                                   metallic_iron
# geometry:                                        ellipsoid
# angle_mode:                                      random
# ngrain:                                      128
# norientations:                                 1
# grain-axis-z:                        2.97419E-01 micron
# grain-axis-y:                        2.97419E-01 micron
# grain-axis-z:                        2.97419E-01 micron
# grid-width:                          5.94839E-01 micron
# axes-convention:                                 ddscat
# parameter_file_name:                             small_params.ini
# -----------------------------------
 # [ephot (kiloelectron-volt)] [Q_sca] [Q_abs] [Q_ext]
  6.0000E-01  1.9897E+00  5.7608E-01  2.5658E+00
  6.0100E-01  1.9868E+00  5.7495E-01  2.5618E+00
  6.0200E-01  1.9838E+00  5.7381E-01  2.5576E+00
  6.0300E-01  1.9806E+00  5.7267E-01  2.5532E+00
  6.0400E-01  1.9772E+00  5.7151E-01  2.5487E+00
  6.0500E-01  1.9737E+00  5.7035E-01  2.5440E+00
  6.0600E-01  1.9700E+00  5.6918E-01  2.5392E+00
  6.0700E-01  1.9661E+00  5.6800E-01  2.5341E+00
  6.0800E-01  1.9621E+00  5.6681E-01  2.5289E+00
  6.0900E-01  1.9576E+00  5.6572E-01  2.5233E+00
  6.1000E-01  1.9529E+00  5.6462E-01  2.5175E+00
  6.1100E-01  1.9480E+00  5.6351E-01  2.5115E+00
  6.1200E-01  1.9430E+00  5.6240E-01  2.5054E+00
  6.1300E-01  1.9378E+00  5.6127E-01  2.4990E+00
  6.1400E-01  1.9324E+00  5.6014E-01  2.4925E+00
  6.1500E-01  1.9268E+00  5.5899E-01  2.4858E+00
  6.1600E-01  1.9210E+00  5.5784E-01  2.4788E+00
  6.1700E-01  1.9150E+00  5.5668E-01  2.4717E+00
  6.1800E-01  1.9087E+00  5.5553E-01  2.4642E+00
  6.1900E-01  1.9019E+00  5.5446E-01  2.4563E+00
  6.2000E-01  1.8948E+00  5.5337E-01  2.4482E+00
  6.2100E-01  1.8875E+00  5.5228E-01  2.4398E+00
  6.2200E-01  1.8801E+00  5.5118E-01  2.4312E+00
  6.2300E-01  1.8724E+00  5.5008E-01  2.4224E+00
  6.2400E-01  1.8645E+00  5.4896E-01  2.4134E+00
  6.2500E-01  1.8563E+00  5.4783E-01  2.4042E+00
  6.2600E-01  1.8480E+00  5.4670E-01  2.3947E+00
  6.2700E-01  1.8394E+00  5.4556E-01  2.3850E+00
  6.2800E-01  1.8305E+00  5.4442E-01  2.3749E+00
  6.2900E-01  1.8207E+00  5.4333E-01  2.3640E+00
  6.3000E-01  1.8107E+00  5.4222E-01  2.3529E+00
  6.3100E-01  1.8004E+00  5.4111E-01  2.3415E+00
  6.3200E-01  1.7899E+00  5.3999E-01  2.3299E+00
  6.3300E-01  1.7791E+00  5.3886E-01  2.3180E+00
  6.3400E-01  1.7681E+00  5.3772E-01  2.3058E+00
  6.3500E-01  1.7569E+00  5.3658E-01  2.2934E+00
  6.3600E-01  1.7454E+00  5.3542E-01  2.2808E+00
  6.3700E-01  1.7336E+00  5.3426E-01  2.2679E+00
  6.3800E-01  1.7215E+00  5.3309E-01  2.2546E+00
  6.3900E-01  1.7078E+00  5.3196E-01  2.2397E+00
  6.4000E-01  1.6938E+00  5.3082E-01  2.2246E+00
  6.4100E-01  1.6795E+00  5.2967E-01  2.2092E+00
  6.4200E-01  1.6649E+00  5.2851E-01  2.1934E+00
  6.4300E-01  1.6501E+00  5.2734E-01  2.1774E+00
  6.4400E-01  1.6349E+00  5.2617E-01  2.1611E+00
  6.4500E-01  1.6195E+00  5.2499E-01  2.1445E+00
  6.4600E-01  1.6038E+00  5.2379E-01  2.1276E+00
  6.4700E-01  1.5879E+00  5.2259E-01  2.1104E+00
  6.4800E-01  1.5716E+00  5.2138E-01  2.0930E+00
  6.4900E-01  1.5529E+00  5.2022E-01  2.0731E+00
  6.5000E-01  1.5332E+00  5.1907E-01  2.0523E+00
  6.5100E-01  1.5133E+00  5.1791E-01  2.0312E+00
  6.5200E-01  1.4930E+00  5.1674E-01  2.0097E+00
  6.5300E-01  1.4723E+00  5.1556E-01  1.9879E+00
  6.5400E-01  1.4514E+00  5.1438E-01  1.9658E+00
  6.5500E-01  1.4302E+00  5.1318E-01  1.9434E+00
  6.5600E-01  1.4086E+00  5.1198E-01  1.9206E+00
  6.5700E-01  1.3868E+00  5.1077E-01  1.8976E+00
  6.5800E-01  1.3648E+00  5.0955E-01  1.8743E+00
  6.5900E-01  1.3408E+00  5.0835E-01  1.8492E+00
  6.6000E-01  1.3127E+00  5.0723E-01  1.8200E+00
  6.6100E-01  1.2843E+00  5.0610E-01  1.7904E+00
  6.6200E-01  1.2556E+00  5.0497E-01  1.7605E+00
  6.6300E-01  1.2266E+00  5.0382E-01  1.7304E+00
  6.6400E-01  1.1973E+00  5.0267E-01  1.7000E+00
  6.6500E-01  1.1678E+00  5.0151E-01  1.6693E+00
  6.6600E-01  1.1381E+00  5.0034E-01  1.6385E+00
  6.6700E-01  1.1082E+00  4.9916E-01  1.6074E+00
  6.6800E-01  1.0782E+00  4.9798E-01  1.5762E+00
  6.6900E-01  1.0480E+00  4.9678E-01  1.5448E+00
  6.7000E-01  1.0107E+00  4.9571E-01  1.5064E+00
  6.7100E-01  9.6914E-01  4.9469E-01  1.4638E+00
  6.7200E-01  9.2768E-01  4.9367E-01  1.4213E+00
  6.7300E-01  8.8633E-01  4.9264E-01  1.3790E+00
  6.7400E-01  8.4518E-01  4.9161E-01  1.3368E+00
  6.7500E-01  8.0430E-01  4.9057E-01  1.2949E+00
  6.7600E-01  7.6376E-01  4.8952E-01  1.2533E+00
  6.7700E-01  7.2364E-01  4.8846E-01  1.2121E+00
  6.7800E-01  6.8402E-01  4.8740E-01  1.1714E+00
  6.7900E-01  6.4497E-01  4.8633E-01  1.1313E+00
  6.8000E-01  6.0658E-01  4.8525E-01  1.0918E+00
  6.8100E-01  5.4993E-01  4.8429E-01  1.0342E+00
  6.8200E-01  4.9115E-01  4.8336E-01  9.7451E-01
  6.8300E-01  4.3520E-01  4.8243E-01  9.1763E-01
  6.8400E-01  3.8240E-01  4.8148E-01  8.6389E-01
  6.8500E-01  3.3305E-01  4.8054E-01  8.1358E-01
  6.8600E-01  2.8743E-01  4.7958E-01  7.6701E-01
  6.8700E-01  2.4583E-01  4.7862E-01  7.2445E-01
  6.8800E-01  2.0852E-01  4.7765E-01  6.8617E-01
  6.8900E-01  1.7573E-01  4.7668E-01  6.5240E-01
  6.9000E-01  1.4769E-01  4.7570E-01  6.2339E-01
  6.9100E-01  1.2097E-01  4.8044E-01  6.0141E-01
  6.9200E-01  1.0107E-01  4.7874E-01  5.7980E-01
  6.9300E-01  8.9098E-02  4.7788E-01  5.6697E-01
  6.9400E-01  9.6394E-02  4.8567E-01  5.8206E-01
  6.9500E-01  1.1621E-01  4.7504E-01  5.9125E-01
  6.9600E-01  1.7456E-01  4.7613E-01  6.5069E-01
  6.9700E-01  2.6790E-01  4.7777E-01  7.4567E-01
  6.9800E-01  4.1594E-01  4.8080E-01  8.9674E-01
  6.9900E-01  6.3422E-01  4.8078E-01  1.1150E+00
  7.0000E-01  9.3827E-01  4.9622E-01  1.4345E+00
  7.0100E-01  1.3465E+00  4.8941E-01  1.8359E+00
  7.0200E-01  1.7807E+00  5.2396E-01  2.3047E+00
  7.0300E-01  2.1285E+00  5.4024E-01  2.6687E+00
  7.0400E-01  1.7654E+00  6.3078E-01  2.3962E+00
  7.0500E-01  1.1374E+00  8.2890E-01  1.9663E+00
  7.0600E-01  1.0129E+00  9.9225E-01  2.0052E+00
  7.0700E-01  9.9001E-01  9.9711E-01  1.9871E+00
  7.0800E-01  9.8321E-01  9.9575E-01  1.9790E+00
  7.0900E-01  9.8101E-01  9.9260E-01  1.9736E+00
  7.1000E-01  9.8263E-01  9.8822E-01  1.9708E+00
  7.1100E-01  9.8243E-01  9.8199E-01  1.9644E+00
  7.1200E-01  9.5966E-01  9.7632E-01  1.9360E+00
  7.1300E-01  9.3387E-01  9.7365E-01  1.9075E+00
  7.1400E-01  9.1513E-01  9.7102E-01  1.8862E+00
  7.1500E-01  8.8292E-01  9.6694E-01  1.8499E+00
  7.1600E-01  8.3471E-01  9.6340E-01  1.7981E+00
  7.1700E-01  7.8244E-01  9.6216E-01  1.7446E+00
  7.1800E-01  8.4465E-01  9.7256E-01  1.8172E+00
  7.1900E-01  9.4131E-01  9.9003E-01  1.9313E+00
  7.2000E-01  9.6060E-01  9.9270E-01  1.9533E+00
  7.2100E-01  9.7498E-01  9.9036E-01  1.9653E+00
  7.2200E-01  9.8668E-01  9.8629E-01  1.9730E+00
  7.2300E-01  9.9550E-01  9.8214E-01  1.9776E+00
  7.2400E-01  1.0009E+00  9.7811E-01  1.9790E+00
  7.2500E-01  9.9904E-01  9.7560E-01  1.9746E+00
  7.2600E-01  9.9769E-01  9.7392E-01  1.9716E+00
  7.2700E-01  9.9781E-01  9.7260E-01  1.9704E+00
  7.2800E-01  9.9840E-01  9.7076E-01  1.9692E+00
  7.2900E-01  9.9588E-01  9.6982E-01  1.9657E+00
  7.3000E-01  9.9540E-01  9.6918E-01  1.9646E+00
  7.3100E-01  9.9459E-01  9.6818E-01  1.9628E+00
  7.3200E-01  9.9368E-01  9.6751E-01  1.9612E+00
  7.3300E-01  9.9282E-01  9.6699E-01  1.9598E+00
  7.3400E-01  9.9079E-01  9.6658E-01  1.9574E+00
  7.3500E-01  9.9253E-01  9.6587E-01  1.9584E+00
  7.3600E-01  9.9158E-01  9.6598E-01  1.9576E+00
  7.3700E-01  9.9335E-01  9.6598E-01  1.9593E+00
  7.3800E-01  9.9691E-01  9.6477E-01  1.9617E+00
  7.3900E-01  9.9836E-01  9.6357E-01  1.9619E+00
  7.4000E-01  9.9949E-01  9.6312E-01  1.9626E+00
  7.4100E-01  9.9887E-01  9.6286E-01  1.9617E+00
  7.4200E-01  9.9846E-01  9.6247E-01  1.9609E+00
  7.4300E-01  9.9911E-01  9.6227E-01  1.9614E+00
  7.4400E-01  9.9959E-01  9.6220E-01  1.9618E+00
  7.4500E-01  1.0019E+00  9.6167E-01  1.9635E+00
  7.4600E-01  1.0024E+00  9.6143E-01  1.9639E+00
  7.4700E-01  1.0030E+00  9.6119E-01  1.9642E+00
  7.4800E-01  1.0036E+00  9.6095E-01  1.9645E+00
  7.4900E-01  1.0042E+00  9.6071E-01  1.9649E+00
  7.5000E-01  1.0053E+00  9.6048E-01  1.9658E+00
  7.5100E-01  1.0064E+00  9.6025E-01  1.9667E+00
  7.5200E-01  1.0076E+00  9.6001E-01  1.9676E+00
  7.5300E-01  1.0088E+00  9.5977E-01  1.9685E+00
  7.5400E-01  1.0099E+00  9.5953E-01  1.9695E+00
  7.5500E-01  1.0111E+00  9.5929E-01  1.9704E+00
  7.5600E-01  1.0123E+00  9.5904E-01  1.9714E+00
  7.5700E-01  1.0136E+00  9.5879E-01  1.9724E+00
  7.5800E-01  1.0148E+00  9.5853E-01  1.9733E+00
  7.5900E-01  1.0161E+00  9.5828E-01  1.9743E+00
  7.6000E-01  1.0173E+00  9.5801E-01  1.9754E+00
  7.6100E-01  1.0186E+00  9.5775E-01  1.9764E+00
  7.6200E-01  1.0198E+00  9.5751E-01  1.9773E+00
  7.6300E-01  1.0211E+00  9.5726E-01  1.9783E+00
  7.6400E-01  1.0223E+00  9.5701E-01  1.9793E+00
  7.6500E-01  1.0236E+00  9.5676E-01  1.9803E+00
  7.6600E-01  1.0248E+00  9.5651E-01  1.9813E+00
  7.6700E-01  1.0261E+00  9.5625E-01  1.9823E+00
  7.6800E-01  1.0274E+00  9.5599E-01  1.9834E+00
  7.6900E-01  1.0287E+00  9.5572E-01  1.9844E+00
  7.7000E-01  1.0300E+00  9.5546E-01  1.9855E+00
  7.7100E-01  1.0314E+00  9.5519E-01  1.9866E+00
  7.7200E-01  1.0327E+00  9.5491E-01  1.9876E+00
  7.7300E-01  1.0341E+00  9.5463E-01  1.9887E+00
  7.7400E-01  1.0353E+00  9.5437E-01  1.9897E+00
  7.7500E-01  1.0364E+00  9.5412E-01  1.9906E+00
  7.7600E-01  1.0376E+00  9.5386E-01  1.9914E+00
  7.7700E-01  1.0387E+00  9.5360E-01  1.9923E+00
  7.7800E-01  1.0399E+00  9.5333E-01  1.9932E+00
  7.7900E-01  1.0411E+00  9.5307E-01  1.9941E+00
  7.8000E-01  1.0423E+00  9.5280E-01  1.9951E+00
  7.8100E-01  1.0435E+00  9.5252E-01  1.9960E+00
  7.8200E-01  1.0447E+00  9.5224E-01  1.9969E+00
  7.8300E-01  1.0459E+00  9.5196E-01  1.9979E+00
  7.8400E-01  1.0472E+00  9.5168E-01  1.9989E+00
  7.8500E-01  1.0484E+00  9.5139E-01  1.9998E+00
  7.8600E-01  1.0497E+00  9.5111E-01  2.0008E+00
  7.8700E-01  1.0505E+00  9.5085E-01  2.0014E+00
  7.8800E-01  1.0514E+00  9.5059E-01  2.0020E+00
  7.8900E-01  1.0522E+00  9.5033E-01  2.0026E+00
  7.9000E-01  1.0531E+00  9.5006E-01  2.0032E+00
  7.9100E-01  1.0540E+00  9.4979E-01  2.0038E+00
  7.9200E-01  1.0549E+00  9.4952E-01  2.0044E+00
  7.9300E-01  1.0558E+00  9.4925E-01  2.0051E+00
  7.9400E-01  1.0568E+00  9.4897E-01  2.0057E+00
  7.9500E-01  1.0577E+00  9.4869E-01  2.0064E+00
  7.9600E-01  1.0586E+00  9.4840E-01  2.0070E+00
  7.9700E-01  1.0596E+00  9.4812E-01  2.0077E+00
  7.9800E-01  1.0605E+00  9.4783E-01  2.0084E+00
  7.9900E-01  1.0612E+00  9.4762E-01  2.0089E+00
