# GGADT v1.2.1
# =-=-=
# Total cross sections as a function of energy
# -----------------------------------
# Parameter values
# -----------------------------------
# a_eff:                               9.68065E-01 micron
# ephot_min:                           6.00000E-01kiloelectron-vo
# ephot_max:                           8.00000E-01kiloelectron-vo
# nephots:                                     200
# Material file:                                   metallic_iron
# geometry:                                        ellipsoid
# angle_mode:                                      random
# ngrain:                                      128
# norientations:                                 1
# grain-axis-z:                        1.08296E+00 micron
# grain-axis-y:                        1.08296E+00 micron
# grain-axis-z:                        7.73545E-01 micron
# grid-width:                          2.16593E+00 micron
# axes-convention:                                 ddscat
# parameter_file_name:                             large_params_random.ini
# -----------------------------------
 # [ephot (kiloelectron-volt)] [Q_sca] [Q_abs] [Q_ext]
  6.0000E-01  1.1764E+00  9.1651E-01  2.0929E+00
  6.0100E-01  1.1784E+00  9.1595E-01  2.0944E+00
  6.0200E-01  1.1804E+00  9.1537E-01  2.0957E+00
  6.0300E-01  1.1822E+00  9.1478E-01  2.0970E+00
  6.0400E-01  1.1840E+00  9.1419E-01  2.0982E+00
  6.0500E-01  1.1856E+00  9.1359E-01  2.0992E+00
  6.0600E-01  1.1872E+00  9.1299E-01  2.1002E+00
  6.0700E-01  1.1886E+00  9.1237E-01  2.1010E+00
  6.0800E-01  1.1900E+00  9.1175E-01  2.1017E+00
  6.0900E-01  1.1911E+00  9.1118E-01  2.1023E+00
  6.1000E-01  1.1921E+00  9.1060E-01  2.1027E+00
  6.1100E-01  1.1929E+00  9.1001E-01  2.1029E+00
  6.1200E-01  1.1936E+00  9.0942E-01  2.1030E+00
  6.1300E-01  1.1942E+00  9.0882E-01  2.1030E+00
  6.1400E-01  1.1946E+00  9.0821E-01  2.1028E+00
  6.1500E-01  1.1948E+00  9.0759E-01  2.1024E+00
  6.1600E-01  1.1949E+00  9.0697E-01  2.1018E+00
  6.1700E-01  1.1948E+00  9.0633E-01  2.1011E+00
  6.1800E-01  1.1945E+00  9.0571E-01  2.1002E+00
  6.1900E-01  1.1939E+00  9.0511E-01  2.0990E+00
  6.2000E-01  1.1932E+00  9.0452E-01  2.0977E+00
  6.2100E-01  1.1922E+00  9.0391E-01  2.0961E+00
  6.2200E-01  1.1911E+00  9.0330E-01  2.0944E+00
  6.2300E-01  1.1898E+00  9.0268E-01  2.0925E+00
  6.2400E-01  1.1884E+00  9.0205E-01  2.0904E+00
  6.2500E-01  1.1867E+00  9.0141E-01  2.0881E+00
  6.2600E-01  1.1849E+00  9.0077E-01  2.0857E+00
  6.2700E-01  1.1829E+00  9.0012E-01  2.0830E+00
  6.2800E-01  1.1807E+00  8.9947E-01  2.0802E+00
  6.2900E-01  1.1782E+00  8.9884E-01  2.0771E+00
  6.3000E-01  1.1755E+00  8.9820E-01  2.0738E+00
  6.3100E-01  1.1728E+00  8.9756E-01  2.0703E+00
  6.3200E-01  1.1698E+00  8.9690E-01  2.0667E+00
  6.3300E-01  1.1668E+00  8.9624E-01  2.0630E+00
  6.3400E-01  1.1637E+00  8.9557E-01  2.0593E+00
  6.3500E-01  1.1605E+00  8.9490E-01  2.0554E+00
  6.3600E-01  1.1573E+00  8.9421E-01  2.0515E+00
  6.3700E-01  1.1540E+00  8.9352E-01  2.0475E+00
  6.3800E-01  1.1507E+00  8.9282E-01  2.0435E+00
  6.3900E-01  1.1471E+00  8.9213E-01  2.0392E+00
  6.4000E-01  1.1435E+00  8.9144E-01  2.0349E+00
  6.4100E-01  1.1400E+00  8.9075E-01  2.0308E+00
  6.4200E-01  1.1367E+00  8.9004E-01  2.0267E+00
  6.4300E-01  1.1335E+00  8.8933E-01  2.0228E+00
  6.4400E-01  1.1305E+00  8.8860E-01  2.0191E+00
  6.4500E-01  1.1278E+00  8.8787E-01  2.0157E+00
  6.4600E-01  1.1254E+00  8.8713E-01  2.0126E+00
  6.4700E-01  1.1233E+00  8.8638E-01  2.0097E+00
  6.4800E-01  1.1216E+00  8.8562E-01  2.0072E+00
  6.4900E-01  1.1202E+00  8.8489E-01  2.0050E+00
  6.5000E-01  1.1192E+00  8.8416E-01  2.0034E+00
  6.5100E-01  1.1189E+00  8.8342E-01  2.0023E+00
  6.5200E-01  1.1194E+00  8.8267E-01  2.0020E+00
  6.5300E-01  1.1205E+00  8.8191E-01  2.0025E+00
  6.5400E-01  1.1225E+00  8.8115E-01  2.0037E+00
  6.5500E-01  1.1254E+00  8.8037E-01  2.0057E+00
  6.5600E-01  1.1291E+00  8.7959E-01  2.0086E+00
  6.5700E-01  1.1337E+00  8.7880E-01  2.0125E+00
  6.5800E-01  1.1392E+00  8.7800E-01  2.0172E+00
  6.5900E-01  1.1461E+00  8.7721E-01  2.0233E+00
  6.6000E-01  1.1553E+00  8.7646E-01  2.0317E+00
  6.6100E-01  1.1658E+00  8.7571E-01  2.0415E+00
  6.6200E-01  1.1777E+00  8.7495E-01  2.0527E+00
  6.6300E-01  1.1909E+00  8.7418E-01  2.0651E+00
  6.6400E-01  1.2053E+00  8.7340E-01  2.0787E+00
  6.6500E-01  1.2208E+00  8.7261E-01  2.0934E+00
  6.6600E-01  1.2373E+00  8.7181E-01  2.1091E+00
  6.6700E-01  1.2547E+00  8.7101E-01  2.1257E+00
  6.6800E-01  1.2727E+00  8.7019E-01  2.1429E+00
  6.6900E-01  1.2913E+00  8.6937E-01  2.1607E+00
  6.7000E-01  1.3141E+00  8.6862E-01  2.1827E+00
  6.7100E-01  1.3389E+00  8.6791E-01  2.2068E+00
  6.7200E-01  1.3630E+00  8.6720E-01  2.2302E+00
  6.7300E-01  1.3857E+00  8.6647E-01  2.2522E+00
  6.7400E-01  1.4065E+00  8.6574E-01  2.2722E+00
  6.7500E-01  1.4245E+00  8.6501E-01  2.2895E+00
  6.7600E-01  1.4392E+00  8.6426E-01  2.3034E+00
  6.7700E-01  1.4499E+00  8.6350E-01  2.3134E+00
  6.7800E-01  1.4560E+00  8.6274E-01  2.3187E+00
  6.7900E-01  1.4570E+00  8.6197E-01  2.3190E+00
  6.8000E-01  1.4524E+00  8.6119E-01  2.3136E+00
  6.8100E-01  1.4327E+00  8.6050E-01  2.2932E+00
  6.8200E-01  1.3951E+00  8.5982E-01  2.2550E+00
  6.8300E-01  1.3409E+00  8.5914E-01  2.2000E+00
  6.8400E-01  1.2708E+00  8.5845E-01  2.1292E+00
  6.8500E-01  1.1868E+00  8.5775E-01  2.0446E+00
  6.8600E-01  1.0917E+00  8.5704E-01  1.9487E+00
  6.8700E-01  9.8890E-01  8.5633E-01  1.8452E+00
  6.8800E-01  8.8271E-01  8.5561E-01  1.7383E+00
  6.8900E-01  7.7774E-01  8.5488E-01  1.6326E+00
  6.9000E-01  6.7887E-01  8.5415E-01  1.5330E+00
  6.9100E-01  5.7199E-01  8.5767E-01  1.4297E+00
  6.9200E-01  4.9134E-01  8.5642E-01  1.3478E+00
  6.9300E-01  4.4031E-01  8.5578E-01  1.2961E+00
  6.9400E-01  4.6716E-01  8.6149E-01  1.3287E+00
  6.9500E-01  5.5681E-01  8.5365E-01  1.4105E+00
  6.9600E-01  7.7433E-01  8.5447E-01  1.6288E+00
  6.9700E-01  1.0474E+00  8.5569E-01  1.9030E+00
  6.9800E-01  1.3199E+00  8.5795E-01  2.1778E+00
  6.9900E-01  1.4669E+00  8.5793E-01  2.3248E+00
  7.0000E-01  1.3532E+00  8.6897E-01  2.2222E+00
  7.0100E-01  1.1566E+00  8.6419E-01  2.0208E+00
  7.0200E-01  1.1688E+00  8.8723E-01  2.0560E+00
  7.0300E-01  1.1710E+00  8.9705E-01  2.0680E+00
  7.0400E-01  1.1178E+00  9.4116E-01  2.0589E+00
  7.0500E-01  1.0402E+00  9.9404E-01  2.0342E+00
  7.0600E-01  1.0179E+00  1.0152E+00  2.0331E+00
  7.0700E-01  1.0148E+00  1.0159E+00  2.0307E+00
  7.0800E-01  1.0138E+00  1.0157E+00  2.0295E+00
  7.0900E-01  1.0133E+00  1.0152E+00  2.0285E+00
  7.1000E-01  1.0132E+00  1.0146E+00  2.0279E+00
  7.1100E-01  1.0131E+00  1.0138E+00  2.0269E+00
  7.1200E-01  1.0113E+00  1.0132E+00  2.0245E+00
  7.1300E-01  1.0091E+00  1.0129E+00  2.0220E+00
  7.1400E-01  1.0075E+00  1.0126E+00  2.0201E+00
  7.1500E-01  1.0045E+00  1.0121E+00  2.0166E+00
  7.1600E-01  9.9878E-01  1.0117E+00  2.0105E+00
  7.1700E-01  9.9027E-01  1.0116E+00  2.0018E+00
  7.1800E-01  9.9857E-01  1.0127E+00  2.0113E+00
  7.1900E-01  1.0090E+00  1.0149E+00  2.0239E+00
  7.2000E-01  1.0111E+00  1.0152E+00  2.0264E+00
  7.2100E-01  1.0126E+00  1.0149E+00  2.0275E+00
  7.2200E-01  1.0136E+00  1.0144E+00  2.0279E+00
  7.2300E-01  1.0143E+00  1.0139E+00  2.0281E+00
  7.2400E-01  1.0148E+00  1.0134E+00  2.0281E+00
  7.2500E-01  1.0147E+00  1.0131E+00  2.0278E+00
  7.2600E-01  1.0147E+00  1.0129E+00  2.0276E+00
  7.2700E-01  1.0148E+00  1.0127E+00  2.0275E+00
  7.2800E-01  1.0149E+00  1.0125E+00  2.0275E+00
  7.2900E-01  1.0148E+00  1.0124E+00  2.0273E+00
  7.3000E-01  1.0149E+00  1.0124E+00  2.0272E+00
  7.3100E-01  1.0149E+00  1.0122E+00  2.0271E+00
  7.3200E-01  1.0149E+00  1.0122E+00  2.0271E+00
  7.3300E-01  1.0149E+00  1.0121E+00  2.0270E+00
  7.3400E-01  1.0148E+00  1.0121E+00  2.0268E+00
  7.3500E-01  1.0150E+00  1.0120E+00  2.0270E+00
  7.3600E-01  1.0149E+00  1.0120E+00  2.0269E+00
  7.3700E-01  1.0150E+00  1.0120E+00  2.0270E+00
  7.3800E-01  1.0154E+00  1.0119E+00  2.0273E+00
  7.3900E-01  1.0157E+00  1.0117E+00  2.0274E+00
  7.4000E-01  1.0158E+00  1.0117E+00  2.0275E+00
  7.4100E-01  1.0158E+00  1.0116E+00  2.0275E+00
  7.4200E-01  1.0159E+00  1.0116E+00  2.0275E+00
  7.4300E-01  1.0159E+00  1.0116E+00  2.0275E+00
  7.4400E-01  1.0160E+00  1.0116E+00  2.0275E+00
  7.4500E-01  1.0162E+00  1.0115E+00  2.0277E+00
  7.4600E-01  1.0163E+00  1.0115E+00  2.0277E+00
  7.4700E-01  1.0163E+00  1.0115E+00  2.0278E+00
  7.4800E-01  1.0164E+00  1.0114E+00  2.0278E+00
  7.4900E-01  1.0165E+00  1.0114E+00  2.0279E+00
  7.5000E-01  1.0166E+00  1.0114E+00  2.0280E+00
  7.5100E-01  1.0167E+00  1.0114E+00  2.0280E+00
  7.5200E-01  1.0168E+00  1.0113E+00  2.0281E+00
  7.5300E-01  1.0169E+00  1.0113E+00  2.0282E+00
  7.5400E-01  1.0170E+00  1.0113E+00  2.0283E+00
  7.5500E-01  1.0171E+00  1.0112E+00  2.0284E+00
  7.5600E-01  1.0173E+00  1.0112E+00  2.0285E+00
  7.5700E-01  1.0174E+00  1.0112E+00  2.0286E+00
  7.5800E-01  1.0175E+00  1.0112E+00  2.0286E+00
  7.5900E-01  1.0176E+00  1.0111E+00  2.0287E+00
  7.6000E-01  1.0177E+00  1.0111E+00  2.0288E+00
  7.6100E-01  1.0178E+00  1.0111E+00  2.0289E+00
  7.6200E-01  1.0179E+00  1.0110E+00  2.0290E+00
  7.6300E-01  1.0181E+00  1.0110E+00  2.0291E+00
  7.6400E-01  1.0182E+00  1.0110E+00  2.0292E+00
  7.6500E-01  1.0183E+00  1.0110E+00  2.0292E+00
  7.6600E-01  1.0184E+00  1.0109E+00  2.0293E+00
  7.6700E-01  1.0185E+00  1.0109E+00  2.0294E+00
  7.6800E-01  1.0186E+00  1.0109E+00  2.0295E+00
  7.6900E-01  1.0187E+00  1.0108E+00  2.0296E+00
  7.7000E-01  1.0189E+00  1.0108E+00  2.0297E+00
  7.7100E-01  1.0190E+00  1.0108E+00  2.0298E+00
  7.7200E-01  1.0191E+00  1.0108E+00  2.0299E+00
  7.7300E-01  1.0192E+00  1.0107E+00  2.0299E+00
  7.7400E-01  1.0193E+00  1.0107E+00  2.0300E+00
  7.7500E-01  1.0194E+00  1.0107E+00  2.0301E+00
  7.7600E-01  1.0195E+00  1.0106E+00  2.0302E+00
  7.7700E-01  1.0196E+00  1.0106E+00  2.0302E+00
  7.7800E-01  1.0197E+00  1.0106E+00  2.0303E+00
  7.7900E-01  1.0198E+00  1.0106E+00  2.0304E+00
  7.8000E-01  1.0199E+00  1.0105E+00  2.0305E+00
  7.8100E-01  1.0201E+00  1.0105E+00  2.0305E+00
  7.8200E-01  1.0202E+00  1.0105E+00  2.0306E+00
  7.8300E-01  1.0203E+00  1.0104E+00  2.0307E+00
  7.8400E-01  1.0204E+00  1.0104E+00  2.0308E+00
  7.8500E-01  1.0205E+00  1.0104E+00  2.0309E+00
  7.8600E-01  1.0206E+00  1.0103E+00  2.0309E+00
  7.8700E-01  1.0207E+00  1.0103E+00  2.0310E+00
  7.8800E-01  1.0208E+00  1.0103E+00  2.0310E+00
  7.8900E-01  1.0209E+00  1.0102E+00  2.0311E+00
  7.9000E-01  1.0209E+00  1.0102E+00  2.0312E+00
  7.9100E-01  1.0210E+00  1.0102E+00  2.0312E+00
  7.9200E-01  1.0211E+00  1.0102E+00  2.0313E+00
  7.9300E-01  1.0212E+00  1.0101E+00  2.0313E+00
  7.9400E-01  1.0213E+00  1.0101E+00  2.0314E+00
  7.9500E-01  1.0214E+00  1.0101E+00  2.0315E+00
  7.9600E-01  1.0215E+00  1.0100E+00  2.0315E+00
  7.9700E-01  1.0216E+00  1.0100E+00  2.0316E+00
  7.9800E-01  1.0217E+00  1.0100E+00  2.0316E+00
  7.9900E-01  1.0217E+00  1.0099E+00  2.0317E+00
