# GGADT v1.2.1
# =-=-=
# Total cross sections as a function of energy
# -----------------------------------
# Parameter values
# -----------------------------------
# a_eff:                               6.16774E-01 micron
# ephot_min:                           6.00000E-01kiloelectron-vo
# ephot_max:                           8.00000E-01kiloelectron-vo
# nephots:                                     200
# Material file:                                   metallic_iron
# geometry:                                        ellipsoid
# angle_mode:                                      random
# ngrain:                                      128
# norientations:                                 1
# grain-axis-z:                        6.89978E-01 micron
# grain-axis-y:                        6.89978E-01 micron
# grain-axis-z:                        4.92842E-01 micron
# grid-width:                          1.37996E+00 micron
# axes-convention:                                 ddscat
# parameter_file_name:                             large_params_random.ini
# -----------------------------------
 # [ephot (kiloelectron-volt)] [Q_sca] [Q_abs] [Q_ext]
  6.0000E-01  1.0084E+00  7.5082E-01  1.7592E+00
  6.0100E-01  1.0076E+00  7.5009E-01  1.7577E+00
  6.0200E-01  1.0070E+00  7.4935E-01  1.7563E+00
  6.0300E-01  1.0064E+00  7.4860E-01  1.7550E+00
  6.0400E-01  1.0061E+00  7.4784E-01  1.7539E+00
  6.0500E-01  1.0058E+00  7.4708E-01  1.7529E+00
  6.0600E-01  1.0057E+00  7.4630E-01  1.7520E+00
  6.0700E-01  1.0057E+00  7.4552E-01  1.7512E+00
  6.0800E-01  1.0059E+00  7.4473E-01  1.7507E+00
  6.0900E-01  1.0063E+00  7.4400E-01  1.7503E+00
  6.1000E-01  1.0068E+00  7.4327E-01  1.7501E+00
  6.1100E-01  1.0075E+00  7.4252E-01  1.7500E+00
  6.1200E-01  1.0084E+00  7.4177E-01  1.7502E+00
  6.1300E-01  1.0095E+00  7.4101E-01  1.7505E+00
  6.1400E-01  1.0108E+00  7.4024E-01  1.7510E+00
  6.1500E-01  1.0123E+00  7.3947E-01  1.7518E+00
  6.1600E-01  1.0140E+00  7.3868E-01  1.7527E+00
  6.1700E-01  1.0160E+00  7.3788E-01  1.7539E+00
  6.1800E-01  1.0182E+00  7.3710E-01  1.7553E+00
  6.1900E-01  1.0207E+00  7.3636E-01  1.7570E+00
  6.2000E-01  1.0234E+00  7.3561E-01  1.7590E+00
  6.2100E-01  1.0264E+00  7.3486E-01  1.7613E+00
  6.2200E-01  1.0297E+00  7.3409E-01  1.7638E+00
  6.2300E-01  1.0333E+00  7.3332E-01  1.7666E+00
  6.2400E-01  1.0371E+00  7.3254E-01  1.7697E+00
  6.2500E-01  1.0412E+00  7.3175E-01  1.7730E+00
  6.2600E-01  1.0456E+00  7.3095E-01  1.7766E+00
  6.2700E-01  1.0504E+00  7.3015E-01  1.7805E+00
  6.2800E-01  1.0554E+00  7.2935E-01  1.7848E+00
  6.2900E-01  1.0610E+00  7.2857E-01  1.7896E+00
  6.3000E-01  1.0669E+00  7.2778E-01  1.7947E+00
  6.3100E-01  1.0731E+00  7.2699E-01  1.8001E+00
  6.3200E-01  1.0797E+00  7.2619E-01  1.8059E+00
  6.3300E-01  1.0866E+00  7.2538E-01  1.8120E+00
  6.3400E-01  1.0938E+00  7.2456E-01  1.8184E+00
  6.3500E-01  1.1013E+00  7.2373E-01  1.8251E+00
  6.3600E-01  1.1092E+00  7.2289E-01  1.8321E+00
  6.3700E-01  1.1174E+00  7.2205E-01  1.8394E+00
  6.3800E-01  1.1259E+00  7.2120E-01  1.8471E+00
  6.3900E-01  1.1355E+00  7.2037E-01  1.8559E+00
  6.4000E-01  1.1454E+00  7.1953E-01  1.8649E+00
  6.4100E-01  1.1556E+00  7.1869E-01  1.8743E+00
  6.4200E-01  1.1661E+00  7.1783E-01  1.8840E+00
  6.4300E-01  1.1770E+00  7.1697E-01  1.8939E+00
  6.4400E-01  1.1881E+00  7.1610E-01  1.9042E+00
  6.4500E-01  1.1994E+00  7.1522E-01  1.9146E+00
  6.4600E-01  1.2110E+00  7.1433E-01  1.9253E+00
  6.4700E-01  1.2228E+00  7.1343E-01  1.9363E+00
  6.4800E-01  1.2348E+00  7.1252E-01  1.9473E+00
  6.4900E-01  1.2482E+00  7.1164E-01  1.9598E+00
  6.5000E-01  1.2620E+00  7.1077E-01  1.9728E+00
  6.5100E-01  1.2759E+00  7.0989E-01  1.9858E+00
  6.5200E-01  1.2899E+00  7.0900E-01  1.9989E+00
  6.5300E-01  1.3038E+00  7.0810E-01  2.0119E+00
  6.5400E-01  1.3177E+00  7.0720E-01  2.0249E+00
  6.5500E-01  1.3315E+00  7.0628E-01  2.0378E+00
  6.5600E-01  1.3451E+00  7.0535E-01  2.0505E+00
  6.5700E-01  1.3585E+00  7.0442E-01  2.0629E+00
  6.5800E-01  1.3715E+00  7.0347E-01  2.0750E+00
  6.5900E-01  1.3849E+00  7.0254E-01  2.0874E+00
  6.6000E-01  1.3992E+00  7.0167E-01  2.1008E+00
  6.6100E-01  1.4126E+00  7.0078E-01  2.1134E+00
  6.6200E-01  1.4251E+00  6.9989E-01  2.1250E+00
  6.6300E-01  1.4366E+00  6.9899E-01  2.1356E+00
  6.6400E-01  1.4469E+00  6.9808E-01  2.1450E+00
  6.6500E-01  1.4559E+00  6.9716E-01  2.1531E+00
  6.6600E-01  1.4635E+00  6.9624E-01  2.1598E+00
  6.6700E-01  1.4696E+00  6.9530E-01  2.1649E+00
  6.6800E-01  1.4741E+00  6.9435E-01  2.1685E+00
  6.6900E-01  1.4769E+00  6.9340E-01  2.1703E+00
  6.7000E-01  1.4770E+00  6.9253E-01  2.1696E+00
  6.7100E-01  1.4734E+00  6.9171E-01  2.1651E+00
  6.7200E-01  1.4661E+00  6.9089E-01  2.1570E+00
  6.7300E-01  1.4549E+00  6.9006E-01  2.1449E+00
  6.7400E-01  1.4397E+00  6.8922E-01  2.1290E+00
  6.7500E-01  1.4206E+00  6.8837E-01  2.1090E+00
  6.7600E-01  1.3974E+00  6.8751E-01  2.0849E+00
  6.7700E-01  1.3702E+00  6.8665E-01  2.0568E+00
  6.7800E-01  1.3390E+00  6.8578E-01  2.0248E+00
  6.7900E-01  1.3040E+00  6.8490E-01  1.9889E+00
  6.8000E-01  1.2653E+00  6.8401E-01  1.9493E+00
  6.8100E-01  1.1993E+00  6.8322E-01  1.8825E+00
  6.8200E-01  1.1204E+00  6.8245E-01  1.8029E+00
  6.8300E-01  1.0352E+00  6.8167E-01  1.7169E+00
  6.8400E-01  9.4551E-01  6.8089E-01  1.6264E+00
  6.8500E-01  8.5324E-01  6.8010E-01  1.5333E+00
  6.8600E-01  7.6052E-01  6.7930E-01  1.4398E+00
  6.8700E-01  6.6961E-01  6.7849E-01  1.3481E+00
  6.8800E-01  5.8277E-01  6.7768E-01  1.2604E+00
  6.8900E-01  5.0226E-01  6.7686E-01  1.1791E+00
  6.9000E-01  4.3025E-01  6.7603E-01  1.1063E+00
  6.9100E-01  3.5690E-01  6.8001E-01  1.0369E+00
  6.9200E-01  3.0246E-01  6.7859E-01  9.8105E-01
  6.9300E-01  2.6889E-01  6.7787E-01  9.4675E-01
  6.9400E-01  2.8746E-01  6.8435E-01  9.7182E-01
  6.9500E-01  3.4565E-01  6.7548E-01  1.0211E+00
  6.9600E-01  4.9956E-01  6.7639E-01  1.1760E+00
  6.9700E-01  7.1959E-01  6.7778E-01  1.3974E+00
  6.9800E-01  1.0049E+00  6.8032E-01  1.6852E+00
  6.9900E-01  1.3014E+00  6.8030E-01  1.9817E+00
  7.0000E-01  1.4640E+00  6.9294E-01  2.1569E+00
  7.0100E-01  1.4217E+00  6.8743E-01  2.1091E+00
  7.0200E-01  1.1064E+00  7.1445E-01  1.8209E+00
  7.0300E-01  1.0565E+00  7.2637E-01  1.7829E+00
  7.0400E-01  1.0479E+00  7.8367E-01  1.8315E+00
  7.0500E-01  9.3959E-01  8.6385E-01  1.8034E+00
  7.0600E-01  9.0157E-01  8.9808E-01  1.7997E+00
  7.0700E-01  8.9755E-01  8.9907E-01  1.7966E+00
  7.0800E-01  8.9639E-01  8.9875E-01  1.7951E+00
  7.0900E-01  8.9599E-01  8.9815E-01  1.7941E+00
  7.1000E-01  8.9623E-01  8.9736E-01  1.7936E+00
  7.1100E-01  8.9637E-01  8.9627E-01  1.7926E+00
  7.1200E-01  8.9354E-01  8.9529E-01  1.7888E+00
  7.1300E-01  8.8990E-01  8.9483E-01  1.7847E+00
  7.1400E-01  8.8724E-01  8.9437E-01  1.7816E+00
  7.1500E-01  8.8216E-01  8.9367E-01  1.7758E+00
  7.1600E-01  8.7226E-01  8.9305E-01  1.7653E+00
  7.1700E-01  8.5779E-01  8.9283E-01  1.7506E+00
  7.1800E-01  8.7189E-01  8.9464E-01  1.7665E+00
  7.1900E-01  8.8923E-01  8.9768E-01  1.7869E+00
  7.2000E-01  8.9253E-01  8.9817E-01  1.7907E+00
  7.2100E-01  8.9497E-01  8.9774E-01  1.7927E+00
  7.2200E-01  8.9689E-01  8.9702E-01  1.7939E+00
  7.2300E-01  8.9831E-01  8.9630E-01  1.7946E+00
  7.2400E-01  8.9927E-01  8.9560E-01  1.7949E+00
  7.2500E-01  8.9924E-01  8.9517E-01  1.7944E+00
  7.2600E-01  8.9926E-01  8.9488E-01  1.7941E+00
  7.2700E-01  8.9945E-01  8.9465E-01  1.7941E+00
  7.2800E-01  8.9981E-01  8.9433E-01  1.7941E+00
  7.2900E-01  8.9965E-01  8.9417E-01  1.7938E+00
  7.3000E-01  8.9970E-01  8.9405E-01  1.7938E+00
  7.3100E-01  8.9979E-01  8.9388E-01  1.7937E+00
  7.3200E-01  8.9981E-01  8.9376E-01  1.7936E+00
  7.3300E-01  8.9981E-01  8.9367E-01  1.7935E+00
  7.3400E-01  8.9964E-01  8.9360E-01  1.7932E+00
  7.3500E-01  9.0001E-01  8.9348E-01  1.7935E+00
  7.3600E-01  8.9986E-01  8.9350E-01  1.7934E+00
  7.3700E-01  9.0008E-01  8.9350E-01  1.7936E+00
  7.3800E-01  9.0078E-01  8.9329E-01  1.7941E+00
  7.3900E-01  9.0123E-01  8.9308E-01  1.7943E+00
  7.4000E-01  9.0146E-01  8.9300E-01  1.7945E+00
  7.4100E-01  9.0145E-01  8.9295E-01  1.7944E+00
  7.4200E-01  9.0150E-01  8.9288E-01  1.7944E+00
  7.4300E-01  9.0162E-01  8.9285E-01  1.7945E+00
  7.4400E-01  9.0170E-01  8.9284E-01  1.7945E+00
  7.4500E-01  9.0209E-01  8.9274E-01  1.7948E+00
  7.4600E-01  9.0221E-01  8.9270E-01  1.7949E+00
  7.4700E-01  9.0233E-01  8.9266E-01  1.7950E+00
  7.4800E-01  9.0246E-01  8.9262E-01  1.7951E+00
  7.4900E-01  9.0259E-01  8.9258E-01  1.7952E+00
  7.5000E-01  9.0277E-01  8.9254E-01  1.7953E+00
  7.5100E-01  9.0295E-01  8.9250E-01  1.7954E+00
  7.5200E-01  9.0314E-01  8.9245E-01  1.7956E+00
  7.5300E-01  9.0333E-01  8.9241E-01  1.7957E+00
  7.5400E-01  9.0352E-01  8.9237E-01  1.7959E+00
  7.5500E-01  9.0371E-01  8.9233E-01  1.7960E+00
  7.5600E-01  9.0390E-01  8.9228E-01  1.7962E+00
  7.5700E-01  9.0409E-01  8.9224E-01  1.7963E+00
  7.5800E-01  9.0429E-01  8.9219E-01  1.7965E+00
  7.5900E-01  9.0449E-01  8.9215E-01  1.7966E+00
  7.6000E-01  9.0469E-01  8.9210E-01  1.7968E+00
  7.6100E-01  9.0489E-01  8.9206E-01  1.7969E+00
  7.6200E-01  9.0507E-01  8.9201E-01  1.7971E+00
  7.6300E-01  9.0526E-01  8.9197E-01  1.7972E+00
  7.6400E-01  9.0545E-01  8.9193E-01  1.7974E+00
  7.6500E-01  9.0564E-01  8.9188E-01  1.7975E+00
  7.6600E-01  9.0583E-01  8.9184E-01  1.7977E+00
  7.6700E-01  9.0602E-01  8.9179E-01  1.7978E+00
  7.6800E-01  9.0622E-01  8.9175E-01  1.7980E+00
  7.6900E-01  9.0641E-01  8.9170E-01  1.7981E+00
  7.7000E-01  9.0661E-01  8.9165E-01  1.7983E+00
  7.7100E-01  9.0681E-01  8.9160E-01  1.7984E+00
  7.7200E-01  9.0701E-01  8.9155E-01  1.7986E+00
  7.7300E-01  9.0721E-01  8.9151E-01  1.7987E+00
  7.7400E-01  9.0739E-01  8.9146E-01  1.7989E+00
  7.7500E-01  9.0756E-01  8.9141E-01  1.7990E+00
  7.7600E-01  9.0774E-01  8.9137E-01  1.7991E+00
  7.7700E-01  9.0791E-01  8.9132E-01  1.7992E+00
  7.7800E-01  9.0809E-01  8.9127E-01  1.7994E+00
  7.7900E-01  9.0826E-01  8.9123E-01  1.7995E+00
  7.8000E-01  9.0844E-01  8.9118E-01  1.7996E+00
  7.8100E-01  9.0862E-01  8.9113E-01  1.7997E+00
  7.8200E-01  9.0880E-01  8.9108E-01  1.7999E+00
  7.8300E-01  9.0898E-01  8.9103E-01  1.8000E+00
  7.8400E-01  9.0917E-01  8.9098E-01  1.8001E+00
  7.8500E-01  9.0935E-01  8.9093E-01  1.8003E+00
  7.8600E-01  9.0953E-01  8.9088E-01  1.8004E+00
  7.8700E-01  9.0967E-01  8.9083E-01  1.8005E+00
  7.8800E-01  9.0981E-01  8.9078E-01  1.8006E+00
  7.8900E-01  9.0996E-01  8.9074E-01  1.8007E+00
  7.9000E-01  9.1010E-01  8.9069E-01  1.8008E+00
  7.9100E-01  9.1025E-01  8.9064E-01  1.8009E+00
  7.9200E-01  9.1040E-01  8.9059E-01  1.8010E+00
  7.9300E-01  9.1055E-01  8.9054E-01  1.8011E+00
  7.9400E-01  9.1070E-01  8.9049E-01  1.8012E+00
  7.9500E-01  9.1085E-01  8.9044E-01  1.8013E+00
  7.9600E-01  9.1100E-01  8.9039E-01  1.8014E+00
  7.9700E-01  9.1116E-01  8.9034E-01  1.8015E+00
  7.9800E-01  9.1132E-01  8.9029E-01  1.8016E+00
  7.9900E-01  9.1143E-01  8.9025E-01  1.8017E+00
