# GGADT v1.2.1
# =-=-=
# Total cross sections as a function of energy
# -----------------------------------
# Parameter values
# -----------------------------------
# a_eff:                               5.52903E-01 micron
# ephot_min:                           6.00000E-01kiloelectron-vo
# ephot_max:                           8.00000E-01kiloelectron-vo
# nephots:                                     200
# Material file:                                   metallic_iron
# geometry:                                        ellipsoid
# angle_mode:                                      random
# ngrain:                                      128
# norientations:                                 1
# grain-axis-z:                        6.18527E-01 micron
# grain-axis-y:                        6.18527E-01 micron
# grain-axis-z:                        4.41805E-01 micron
# grid-width:                          1.23705E+00 micron
# axes-convention:                                 ddscat
# parameter_file_name:                             large_params_random.ini
# -----------------------------------
 # [ephot (kiloelectron-volt)] [Q_sca] [Q_abs] [Q_ext]
  6.0000E-01  1.1327E+00  7.5316E-01  1.8859E+00
  6.0100E-01  1.1374E+00  7.5227E-01  1.8897E+00
  6.0200E-01  1.1423E+00  7.5138E-01  1.8937E+00
  6.0300E-01  1.1474E+00  7.5048E-01  1.8979E+00
  6.0400E-01  1.1527E+00  7.4957E-01  1.9023E+00
  6.0500E-01  1.1582E+00  7.4864E-01  1.9068E+00
  6.0600E-01  1.1639E+00  7.4771E-01  1.9116E+00
  6.0700E-01  1.1698E+00  7.4677E-01  1.9165E+00
  6.0800E-01  1.1759E+00  7.4583E-01  1.9217E+00
  6.0900E-01  1.1822E+00  7.4495E-01  1.9271E+00
  6.1000E-01  1.1887E+00  7.4407E-01  1.9327E+00
  6.1100E-01  1.1954E+00  7.4318E-01  1.9386E+00
  6.1200E-01  1.2023E+00  7.4228E-01  1.9446E+00
  6.1300E-01  1.2094E+00  7.4137E-01  1.9508E+00
  6.1400E-01  1.2167E+00  7.4045E-01  1.9572E+00
  6.1500E-01  1.2243E+00  7.3952E-01  1.9638E+00
  6.1600E-01  1.2320E+00  7.3858E-01  1.9706E+00
  6.1700E-01  1.2399E+00  7.3764E-01  1.9775E+00
  6.1800E-01  1.2481E+00  7.3670E-01  1.9848E+00
  6.1900E-01  1.2565E+00  7.3582E-01  1.9923E+00
  6.2000E-01  1.2651E+00  7.3493E-01  2.0001E+00
  6.2100E-01  1.2740E+00  7.3403E-01  2.0080E+00
  6.2200E-01  1.2830E+00  7.3312E-01  2.0161E+00
  6.2300E-01  1.2921E+00  7.3221E-01  2.0244E+00
  6.2400E-01  1.3015E+00  7.3128E-01  2.0328E+00
  6.2500E-01  1.3110E+00  7.3035E-01  2.0413E+00
  6.2600E-01  1.3206E+00  7.2940E-01  2.0500E+00
  6.2700E-01  1.3304E+00  7.2845E-01  2.0589E+00
  6.2800E-01  1.3405E+00  7.2750E-01  2.0680E+00
  6.2900E-01  1.3510E+00  7.2658E-01  2.0776E+00
  6.3000E-01  1.3616E+00  7.2565E-01  2.0873E+00
  6.3100E-01  1.3724E+00  7.2471E-01  2.0971E+00
  6.3200E-01  1.3832E+00  7.2377E-01  2.1070E+00
  6.3300E-01  1.3941E+00  7.2281E-01  2.1169E+00
  6.3400E-01  1.4051E+00  7.2185E-01  2.1269E+00
  6.3500E-01  1.4161E+00  7.2087E-01  2.1370E+00
  6.3600E-01  1.4272E+00  7.1989E-01  2.1471E+00
  6.3700E-01  1.4383E+00  7.1889E-01  2.1572E+00
  6.3800E-01  1.4495E+00  7.1789E-01  2.1674E+00
  6.3900E-01  1.4614E+00  7.1692E-01  2.1783E+00
  6.4000E-01  1.4733E+00  7.1594E-01  2.1892E+00
  6.4100E-01  1.4851E+00  7.1495E-01  2.2000E+00
  6.4200E-01  1.4968E+00  7.1395E-01  2.2107E+00
  6.4300E-01  1.5083E+00  7.1294E-01  2.2213E+00
  6.4400E-01  1.5197E+00  7.1192E-01  2.2317E+00
  6.4500E-01  1.5309E+00  7.1089E-01  2.2418E+00
  6.4600E-01  1.5420E+00  7.0985E-01  2.2518E+00
  6.4700E-01  1.5527E+00  7.0880E-01  2.2615E+00
  6.4800E-01  1.5632E+00  7.0774E-01  2.2710E+00
  6.4900E-01  1.5742E+00  7.0672E-01  2.2809E+00
  6.5000E-01  1.5850E+00  7.0570E-01  2.2907E+00
  6.5100E-01  1.5952E+00  7.0468E-01  2.2999E+00
  6.5200E-01  1.6049E+00  7.0365E-01  2.3086E+00
  6.5300E-01  1.6140E+00  7.0260E-01  2.3166E+00
  6.5400E-01  1.6225E+00  7.0155E-01  2.3240E+00
  6.5500E-01  1.6302E+00  7.0049E-01  2.3307E+00
  6.5600E-01  1.6373E+00  6.9941E-01  2.3367E+00
  6.5700E-01  1.6435E+00  6.9833E-01  2.3419E+00
  6.5800E-01  1.6490E+00  6.9723E-01  2.3462E+00
  6.5900E-01  1.6536E+00  6.9616E-01  2.3497E+00
  6.6000E-01  1.6570E+00  6.9515E-01  2.3522E+00
  6.6100E-01  1.6590E+00  6.9413E-01  2.3531E+00
  6.6200E-01  1.6594E+00  6.9310E-01  2.3525E+00
  6.6300E-01  1.6583E+00  6.9206E-01  2.3503E+00
  6.6400E-01  1.6555E+00  6.9101E-01  2.3465E+00
  6.6500E-01  1.6510E+00  6.8996E-01  2.3410E+00
  6.6600E-01  1.6448E+00  6.8889E-01  2.3337E+00
  6.6700E-01  1.6368E+00  6.8781E-01  2.3246E+00
  6.6800E-01  1.6270E+00  6.8672E-01  2.3137E+00
  6.6900E-01  1.6153E+00  6.8563E-01  2.3010E+00
  6.7000E-01  1.5976E+00  6.8463E-01  2.2823E+00
  6.7100E-01  1.5744E+00  6.8370E-01  2.2581E+00
  6.7200E-01  1.5478E+00  6.8275E-01  2.2305E+00
  6.7300E-01  1.5178E+00  6.8180E-01  2.1996E+00
  6.7400E-01  1.4845E+00  6.8084E-01  2.1653E+00
  6.7500E-01  1.4480E+00  6.7987E-01  2.1278E+00
  6.7600E-01  1.4084E+00  6.7889E-01  2.0873E+00
  6.7700E-01  1.3658E+00  6.7790E-01  2.0437E+00
  6.7800E-01  1.3205E+00  6.7691E-01  1.9974E+00
  6.7900E-01  1.2726E+00  6.7590E-01  1.9486E+00
  6.8000E-01  1.2224E+00  6.7489E-01  1.8973E+00
  6.8100E-01  1.1419E+00  6.7399E-01  1.8159E+00
  6.8200E-01  1.0512E+00  6.7311E-01  1.7243E+00
  6.8300E-01  9.5799E-01  6.7223E-01  1.6302E+00
  6.8400E-01  8.6390E-01  6.7134E-01  1.5352E+00
  6.8500E-01  7.7053E-01  6.7044E-01  1.4410E+00
  6.8600E-01  6.7954E-01  6.6953E-01  1.3491E+00
  6.8700E-01  5.9262E-01  6.6861E-01  1.2612E+00
  6.8800E-01  5.1141E-01  6.6769E-01  1.1791E+00
  6.8900E-01  4.3752E-01  6.6676E-01  1.1043E+00
  6.9000E-01  3.7246E-01  6.6583E-01  1.0383E+00
  6.9100E-01  3.0750E-01  6.7034E-01  9.7785E-01
  6.9200E-01  2.5941E-01  6.6873E-01  9.2814E-01
  6.9300E-01  2.2999E-01  6.6791E-01  8.9790E-01
  6.9400E-01  2.4665E-01  6.7528E-01  9.2193E-01
  6.9500E-01  2.9718E-01  6.6520E-01  9.6238E-01
  6.9600E-01  4.3502E-01  6.6623E-01  1.1013E+00
  6.9700E-01  6.3989E-01  6.6780E-01  1.3077E+00
  6.9800E-01  9.2533E-01  6.7069E-01  1.5960E+00
  6.9900E-01  1.2649E+00  6.7067E-01  1.9356E+00
  7.0000E-01  1.5512E+00  6.8510E-01  2.2363E+00
  7.0100E-01  1.6950E+00  6.7879E-01  2.3738E+00
  7.0200E-01  1.4306E+00  7.1000E-01  2.1406E+00
  7.0300E-01  1.0985E+00  7.2398E-01  1.8225E+00
  7.0400E-01  1.2062E+00  7.9353E-01  1.9997E+00
  7.0500E-01  1.0242E+00  9.0016E-01  1.9243E+00
  7.0600E-01  9.5560E-01  9.5020E-01  1.9058E+00
  7.0700E-01  9.4960E-01  9.5148E-01  1.9011E+00
  7.0800E-01  9.4779E-01  9.5113E-01  1.8989E+00
  7.0900E-01  9.4713E-01  9.5029E-01  1.8974E+00
  7.1000E-01  9.4744E-01  9.4914E-01  1.8966E+00
  7.1100E-01  9.4761E-01  9.4753E-01  1.8951E+00
  7.1200E-01  9.4345E-01  9.4608E-01  1.8895E+00
  7.1300E-01  9.3807E-01  9.4539E-01  1.8835E+00
  7.1400E-01  9.3410E-01  9.4472E-01  1.8788E+00
  7.1500E-01  9.2646E-01  9.4366E-01  1.8701E+00
  7.1600E-01  9.1171E-01  9.4275E-01  1.8545E+00
  7.1700E-01  8.9078E-01  9.4243E-01  1.8332E+00
  7.1800E-01  9.1141E-01  9.4511E-01  1.8565E+00
  7.1900E-01  9.3709E-01  9.4962E-01  1.8867E+00
  7.2000E-01  9.4200E-01  9.5032E-01  1.8923E+00
  7.2100E-01  9.4559E-01  9.4970E-01  1.8953E+00
  7.2200E-01  9.4840E-01  9.4864E-01  1.8970E+00
  7.2300E-01  9.5048E-01  9.4757E-01  1.8980E+00
  7.2400E-01  9.5188E-01  9.4654E-01  1.8984E+00
  7.2500E-01  9.5184E-01  9.4589E-01  1.8977E+00
  7.2600E-01  9.5188E-01  9.4546E-01  1.8973E+00
  7.2700E-01  9.5217E-01  9.4512E-01  1.8973E+00
  7.2800E-01  9.5272E-01  9.4465E-01  1.8974E+00
  7.2900E-01  9.5251E-01  9.4441E-01  1.8969E+00
  7.3000E-01  9.5260E-01  9.4424E-01  1.8968E+00
  7.3100E-01  9.5275E-01  9.4399E-01  1.8967E+00
  7.3200E-01  9.5279E-01  9.4381E-01  1.8966E+00
  7.3300E-01  9.5281E-01  9.4368E-01  1.8965E+00
  7.3400E-01  9.5258E-01  9.4357E-01  1.8961E+00
  7.3500E-01  9.5313E-01  9.4339E-01  1.8965E+00
  7.3600E-01  9.5292E-01  9.4342E-01  1.8963E+00
  7.3700E-01  9.5324E-01  9.4342E-01  1.8967E+00
  7.3800E-01  9.5430E-01  9.4310E-01  1.8974E+00
  7.3900E-01  9.5499E-01  9.4280E-01  1.8978E+00
  7.4000E-01  9.5535E-01  9.4268E-01  1.8980E+00
  7.4100E-01  9.5534E-01  9.4261E-01  1.8980E+00
  7.4200E-01  9.5543E-01  9.4251E-01  1.8979E+00
  7.4300E-01  9.5561E-01  9.4246E-01  1.8981E+00
  7.4400E-01  9.5572E-01  9.4244E-01  1.8982E+00
  7.4500E-01  9.5631E-01  9.4230E-01  1.8986E+00
  7.4600E-01  9.5650E-01  9.4224E-01  1.8987E+00
  7.4700E-01  9.5668E-01  9.4218E-01  1.8989E+00
  7.4800E-01  9.5688E-01  9.4212E-01  1.8990E+00
  7.4900E-01  9.5707E-01  9.4205E-01  1.8991E+00
  7.5000E-01  9.5735E-01  9.4199E-01  1.8993E+00
  7.5100E-01  9.5763E-01  9.4193E-01  1.8996E+00
  7.5200E-01  9.5791E-01  9.4187E-01  1.8998E+00
  7.5300E-01  9.5819E-01  9.4181E-01  1.9000E+00
  7.5400E-01  9.5847E-01  9.4175E-01  1.9002E+00
  7.5500E-01  9.5876E-01  9.4168E-01  1.9004E+00
  7.5600E-01  9.5905E-01  9.4162E-01  1.9007E+00
  7.5700E-01  9.5934E-01  9.4155E-01  1.9009E+00
  7.5800E-01  9.5963E-01  9.4149E-01  1.9011E+00
  7.5900E-01  9.5993E-01  9.4142E-01  1.9013E+00
  7.6000E-01  9.6023E-01  9.4135E-01  1.9016E+00
  7.6100E-01  9.6053E-01  9.4128E-01  1.9018E+00
  7.6200E-01  9.6081E-01  9.4122E-01  1.9020E+00
  7.6300E-01  9.6109E-01  9.4116E-01  1.9022E+00
  7.6400E-01  9.6137E-01  9.4109E-01  1.9025E+00
  7.6500E-01  9.6165E-01  9.4102E-01  1.9027E+00
  7.6600E-01  9.6194E-01  9.4096E-01  1.9029E+00
  7.6700E-01  9.6223E-01  9.4089E-01  1.9031E+00
  7.6800E-01  9.6252E-01  9.4082E-01  1.9033E+00
  7.6900E-01  9.6281E-01  9.4075E-01  1.9036E+00
  7.7000E-01  9.6310E-01  9.4068E-01  1.9038E+00
  7.7100E-01  9.6340E-01  9.4061E-01  1.9040E+00
  7.7200E-01  9.6370E-01  9.4054E-01  1.9042E+00
  7.7300E-01  9.6400E-01  9.4047E-01  1.9045E+00
  7.7400E-01  9.6427E-01  9.4040E-01  1.9047E+00
  7.7500E-01  9.6453E-01  9.4033E-01  1.9049E+00
  7.7600E-01  9.6478E-01  9.4026E-01  1.9050E+00
  7.7700E-01  9.6505E-01  9.4019E-01  1.9052E+00
  7.7800E-01  9.6531E-01  9.4013E-01  1.9054E+00
  7.7900E-01  9.6557E-01  9.4005E-01  1.9056E+00
  7.8000E-01  9.6584E-01  9.3998E-01  1.9058E+00
  7.8100E-01  9.6611E-01  9.3991E-01  1.9060E+00
  7.8200E-01  9.6638E-01  9.3984E-01  1.9062E+00
  7.8300E-01  9.6665E-01  9.3976E-01  1.9064E+00
  7.8400E-01  9.6692E-01  9.3969E-01  1.9066E+00
  7.8500E-01  9.6720E-01  9.3961E-01  1.9068E+00
  7.8600E-01  9.6747E-01  9.3954E-01  1.9070E+00
  7.8700E-01  9.6768E-01  9.3947E-01  1.9072E+00
  7.8800E-01  9.6790E-01  9.3940E-01  1.9073E+00
  7.8900E-01  9.6812E-01  9.3933E-01  1.9075E+00
  7.9000E-01  9.6834E-01  9.3926E-01  1.9076E+00
  7.9100E-01  9.6856E-01  9.3919E-01  1.9078E+00
  7.9200E-01  9.6879E-01  9.3912E-01  1.9079E+00
  7.9300E-01  9.6902E-01  9.3905E-01  1.9081E+00
  7.9400E-01  9.6925E-01  9.3897E-01  1.9082E+00
  7.9500E-01  9.6948E-01  9.3890E-01  1.9084E+00
  7.9600E-01  9.6971E-01  9.3882E-01  1.9085E+00
  7.9700E-01  9.6995E-01  9.3874E-01  1.9087E+00
  7.9800E-01  9.7019E-01  9.3867E-01  1.9089E+00
  7.9900E-01  9.7036E-01  9.3861E-01  1.9090E+00
