# GGADT v1.2.1
# =-=-=
# Total cross sections as a function of energy
# -----------------------------------
# Parameter values
# -----------------------------------
# a_eff:                               5.84839E-01 micron
# ephot_min:                           6.00000E-01kiloelectron-vo
# ephot_max:                           8.00000E-01kiloelectron-vo
# nephots:                                     200
# Material file:                                   metallic_iron
# geometry:                                        ellipsoid
# angle_mode:                                      random
# ngrain:                                      128
# norientations:                                 1
# grain-axis-z:                        6.54253E-01 micron
# grain-axis-y:                        6.54253E-01 micron
# grain-axis-z:                        4.67323E-01 micron
# grid-width:                          1.30851E+00 micron
# axes-convention:                                 ddscat
# parameter_file_name:                             large_params_random.ini
# -----------------------------------
 # [ephot (kiloelectron-volt)] [Q_sca] [Q_abs] [Q_ext]
  6.0000E-01  1.2765E+00  8.1324E-01  2.0897E+00
  6.0100E-01  1.2827E+00  8.1225E-01  2.0950E+00
  6.0200E-01  1.2891E+00  8.1126E-01  2.1004E+00
  6.0300E-01  1.2958E+00  8.1025E-01  2.1060E+00
  6.0400E-01  1.3026E+00  8.0923E-01  2.1119E+00
  6.0500E-01  1.3097E+00  8.0820E-01  2.1179E+00
  6.0600E-01  1.3169E+00  8.0717E-01  2.1241E+00
  6.0700E-01  1.3244E+00  8.0612E-01  2.1305E+00
  6.0800E-01  1.3320E+00  8.0506E-01  2.1371E+00
  6.0900E-01  1.3399E+00  8.0409E-01  2.1440E+00
  6.1000E-01  1.3479E+00  8.0311E-01  2.1510E+00
  6.1100E-01  1.3562E+00  8.0211E-01  2.1583E+00
  6.1200E-01  1.3646E+00  8.0111E-01  2.1657E+00
  6.1300E-01  1.3733E+00  8.0010E-01  2.1734E+00
  6.1400E-01  1.3821E+00  7.9907E-01  2.1812E+00
  6.1500E-01  1.3911E+00  7.9804E-01  2.1892E+00
  6.1600E-01  1.4003E+00  7.9700E-01  2.1973E+00
  6.1700E-01  1.4097E+00  7.9594E-01  2.2056E+00
  6.1800E-01  1.4193E+00  7.9490E-01  2.2142E+00
  6.1900E-01  1.4292E+00  7.9392E-01  2.2231E+00
  6.2000E-01  1.4392E+00  7.9293E-01  2.2321E+00
  6.2100E-01  1.4494E+00  7.9193E-01  2.2413E+00
  6.2200E-01  1.4597E+00  7.9092E-01  2.2507E+00
  6.2300E-01  1.4702E+00  7.8990E-01  2.2601E+00
  6.2400E-01  1.4808E+00  7.8887E-01  2.2697E+00
  6.2500E-01  1.4916E+00  7.8783E-01  2.2794E+00
  6.2600E-01  1.5025E+00  7.8678E-01  2.2892E+00
  6.2700E-01  1.5134E+00  7.8572E-01  2.2991E+00
  6.2800E-01  1.5246E+00  7.8466E-01  2.3093E+00
  6.2900E-01  1.5362E+00  7.8364E-01  2.3198E+00
  6.3000E-01  1.5479E+00  7.8261E-01  2.3305E+00
  6.3100E-01  1.5596E+00  7.8157E-01  2.3412E+00
  6.3200E-01  1.5714E+00  7.8052E-01  2.3519E+00
  6.3300E-01  1.5832E+00  7.7945E-01  2.3626E+00
  6.3400E-01  1.5950E+00  7.7838E-01  2.3734E+00
  6.3500E-01  1.6068E+00  7.7730E-01  2.3841E+00
  6.3600E-01  1.6185E+00  7.7621E-01  2.3948E+00
  6.3700E-01  1.6303E+00  7.7510E-01  2.4054E+00
  6.3800E-01  1.6420E+00  7.7399E-01  2.4160E+00
  6.3900E-01  1.6544E+00  7.7292E-01  2.4273E+00
  6.4000E-01  1.6667E+00  7.7183E-01  2.4385E+00
  6.4100E-01  1.6788E+00  7.7073E-01  2.4495E+00
  6.4200E-01  1.6907E+00  7.6962E-01  2.4603E+00
  6.4300E-01  1.7023E+00  7.6850E-01  2.4708E+00
  6.4400E-01  1.7137E+00  7.6737E-01  2.4811E+00
  6.4500E-01  1.7249E+00  7.6622E-01  2.4911E+00
  6.4600E-01  1.7357E+00  7.6507E-01  2.5008E+00
  6.4700E-01  1.7462E+00  7.6391E-01  2.5101E+00
  6.4800E-01  1.7563E+00  7.6273E-01  2.5190E+00
  6.4900E-01  1.7667E+00  7.6160E-01  2.5283E+00
  6.5000E-01  1.7767E+00  7.6048E-01  2.5372E+00
  6.5100E-01  1.7861E+00  7.5934E-01  2.5454E+00
  6.5200E-01  1.7947E+00  7.5820E-01  2.5529E+00
  6.5300E-01  1.8027E+00  7.5704E-01  2.5597E+00
  6.5400E-01  1.8098E+00  7.5587E-01  2.5657E+00
  6.5500E-01  1.8162E+00  7.5469E-01  2.5709E+00
  6.5600E-01  1.8216E+00  7.5350E-01  2.5751E+00
  6.5700E-01  1.8262E+00  7.5230E-01  2.5785E+00
  6.5800E-01  1.8298E+00  7.5109E-01  2.5809E+00
  6.5900E-01  1.8323E+00  7.4990E-01  2.5822E+00
  6.6000E-01  1.8331E+00  7.4878E-01  2.5819E+00
  6.6100E-01  1.8323E+00  7.4766E-01  2.5799E+00
  6.6200E-01  1.8297E+00  7.4652E-01  2.5763E+00
  6.6300E-01  1.8255E+00  7.4537E-01  2.5708E+00
  6.6400E-01  1.8194E+00  7.4421E-01  2.5636E+00
  6.6500E-01  1.8115E+00  7.4304E-01  2.5545E+00
  6.6600E-01  1.8017E+00  7.4186E-01  2.5436E+00
  6.6700E-01  1.7900E+00  7.4067E-01  2.5307E+00
  6.6800E-01  1.7764E+00  7.3947E-01  2.5159E+00
  6.6900E-01  1.7608E+00  7.3825E-01  2.4991E+00
  6.7000E-01  1.7381E+00  7.3715E-01  2.4753E+00
  6.7100E-01  1.7092E+00  7.3612E-01  2.4454E+00
  6.7200E-01  1.6768E+00  7.3507E-01  2.4119E+00
  6.7300E-01  1.6410E+00  7.3402E-01  2.3750E+00
  6.7400E-01  1.6018E+00  7.3296E-01  2.3347E+00
  6.7500E-01  1.5594E+00  7.3189E-01  2.2912E+00
  6.7600E-01  1.5138E+00  7.3081E-01  2.2446E+00
  6.7700E-01  1.4654E+00  7.2972E-01  2.1951E+00
  6.7800E-01  1.4143E+00  7.2862E-01  2.1429E+00
  6.7900E-01  1.3606E+00  7.2751E-01  2.0881E+00
  6.8000E-01  1.3048E+00  7.2639E-01  2.0311E+00
  6.8100E-01  1.2159E+00  7.2540E-01  1.9413E+00
  6.8200E-01  1.1166E+00  7.2443E-01  1.8410E+00
  6.8300E-01  1.0153E+00  7.2346E-01  1.7387E+00
  6.8400E-01  9.1363E-01  7.2247E-01  1.6361E+00
  6.8500E-01  8.1332E-01  7.2148E-01  1.5348E+00
  6.8600E-01  7.1603E-01  7.2048E-01  1.4365E+00
  6.8700E-01  6.2346E-01  7.1947E-01  1.3429E+00
  6.8800E-01  5.3729E-01  7.1845E-01  1.2557E+00
  6.8900E-01  4.5911E-01  7.1742E-01  1.1765E+00
  6.9000E-01  3.9043E-01  7.1639E-01  1.1068E+00
  6.9100E-01  3.2210E-01  7.2137E-01  1.0435E+00
  6.9200E-01  2.7152E-01  7.1959E-01  9.9111E-01
  6.9300E-01  2.4062E-01  7.1869E-01  9.5931E-01
  6.9400E-01  2.5820E-01  7.2683E-01  9.8502E-01
  6.9500E-01  3.1117E-01  7.1570E-01  1.0269E+00
  6.9600E-01  4.5645E-01  7.1684E-01  1.1733E+00
  6.9700E-01  6.7371E-01  7.1857E-01  1.3923E+00
  6.9800E-01  9.7984E-01  7.2176E-01  1.7016E+00
  6.9900E-01  1.3514E+00  7.2173E-01  2.0731E+00
  7.0000E-01  1.6816E+00  7.3767E-01  2.4193E+00
  7.0100E-01  1.8767E+00  7.3070E-01  2.6074E+00
  7.0200E-01  1.6247E+00  7.6523E-01  2.3899E+00
  7.0300E-01  1.2235E+00  7.8076E-01  2.0042E+00
  7.0400E-01  1.3145E+00  8.5843E-01  2.1729E+00
  7.0500E-01  1.1177E+00  9.7967E-01  2.0974E+00
  7.0600E-01  1.0434E+00  1.0377E+00  2.0811E+00
  7.0700E-01  1.0368E+00  1.0393E+00  2.0761E+00
  7.0800E-01  1.0347E+00  1.0388E+00  2.0735E+00
  7.0900E-01  1.0340E+00  1.0378E+00  2.0718E+00
  7.1000E-01  1.0344E+00  1.0364E+00  2.0708E+00
  7.1100E-01  1.0347E+00  1.0345E+00  2.0692E+00
  7.1200E-01  1.0299E+00  1.0328E+00  2.0627E+00
  7.1300E-01  1.0237E+00  1.0320E+00  2.0557E+00
  7.1400E-01  1.0190E+00  1.0313E+00  2.0503E+00
  7.1500E-01  1.0101E+00  1.0300E+00  2.0401E+00
  7.1600E-01  9.9291E-01  1.0290E+00  2.0219E+00
  7.1700E-01  9.6869E-01  1.0286E+00  1.9973E+00
  7.1800E-01  9.9262E-01  1.0317E+00  2.0243E+00
  7.1900E-01  1.0224E+00  1.0370E+00  2.0594E+00
  7.2000E-01  1.0281E+00  1.0378E+00  2.0659E+00
  7.2100E-01  1.0322E+00  1.0371E+00  2.0693E+00
  7.2200E-01  1.0355E+00  1.0358E+00  2.0714E+00
  7.2300E-01  1.0380E+00  1.0346E+00  2.0726E+00
  7.2400E-01  1.0397E+00  1.0334E+00  2.0730E+00
  7.2500E-01  1.0396E+00  1.0326E+00  2.0723E+00
  7.2600E-01  1.0397E+00  1.0321E+00  2.0718E+00
  7.2700E-01  1.0401E+00  1.0317E+00  2.0718E+00
  7.2800E-01  1.0407E+00  1.0312E+00  2.0719E+00
  7.2900E-01  1.0405E+00  1.0309E+00  2.0714E+00
  7.3000E-01  1.0406E+00  1.0307E+00  2.0713E+00
  7.3100E-01  1.0408E+00  1.0304E+00  2.0712E+00
  7.3200E-01  1.0409E+00  1.0302E+00  2.0711E+00
  7.3300E-01  1.0409E+00  1.0301E+00  2.0709E+00
  7.3400E-01  1.0406E+00  1.0299E+00  2.0706E+00
  7.3500E-01  1.0413E+00  1.0297E+00  2.0710E+00
  7.3600E-01  1.0410E+00  1.0298E+00  2.0708E+00
  7.3700E-01  1.0414E+00  1.0298E+00  2.0712E+00
  7.3800E-01  1.0426E+00  1.0294E+00  2.0720E+00
  7.3900E-01  1.0435E+00  1.0290E+00  2.0725E+00
  7.4000E-01  1.0439E+00  1.0289E+00  2.0728E+00
  7.4100E-01  1.0439E+00  1.0288E+00  2.0727E+00
  7.4200E-01  1.0440E+00  1.0287E+00  2.0727E+00
  7.4300E-01  1.0442E+00  1.0286E+00  2.0729E+00
  7.4400E-01  1.0443E+00  1.0286E+00  2.0730E+00
  7.4500E-01  1.0450E+00  1.0285E+00  2.0735E+00
  7.4600E-01  1.0453E+00  1.0284E+00  2.0737E+00
  7.4700E-01  1.0455E+00  1.0283E+00  2.0738E+00
  7.4800E-01  1.0457E+00  1.0282E+00  2.0740E+00
  7.4900E-01  1.0459E+00  1.0282E+00  2.0741E+00
  7.5000E-01  1.0463E+00  1.0281E+00  2.0744E+00
  7.5100E-01  1.0466E+00  1.0280E+00  2.0746E+00
  7.5200E-01  1.0469E+00  1.0280E+00  2.0749E+00
  7.5300E-01  1.0473E+00  1.0279E+00  2.0751E+00
  7.5400E-01  1.0476E+00  1.0278E+00  2.0754E+00
  7.5500E-01  1.0479E+00  1.0277E+00  2.0757E+00
  7.5600E-01  1.0483E+00  1.0277E+00  2.0759E+00
  7.5700E-01  1.0486E+00  1.0276E+00  2.0762E+00
  7.5800E-01  1.0490E+00  1.0275E+00  2.0765E+00
  7.5900E-01  1.0493E+00  1.0274E+00  2.0767E+00
  7.6000E-01  1.0497E+00  1.0274E+00  2.0770E+00
  7.6100E-01  1.0500E+00  1.0273E+00  2.0773E+00
  7.6200E-01  1.0503E+00  1.0272E+00  2.0775E+00
  7.6300E-01  1.0507E+00  1.0271E+00  2.0778E+00
  7.6400E-01  1.0510E+00  1.0271E+00  2.0781E+00
  7.6500E-01  1.0513E+00  1.0270E+00  2.0783E+00
  7.6600E-01  1.0517E+00  1.0269E+00  2.0786E+00
  7.6700E-01  1.0520E+00  1.0268E+00  2.0788E+00
  7.6800E-01  1.0524E+00  1.0267E+00  2.0791E+00
  7.6900E-01  1.0527E+00  1.0267E+00  2.0794E+00
  7.7000E-01  1.0530E+00  1.0266E+00  2.0796E+00
  7.7100E-01  1.0534E+00  1.0265E+00  2.0799E+00
  7.7200E-01  1.0537E+00  1.0264E+00  2.0802E+00
  7.7300E-01  1.0541E+00  1.0263E+00  2.0804E+00
  7.7400E-01  1.0544E+00  1.0263E+00  2.0807E+00
  7.7500E-01  1.0547E+00  1.0262E+00  2.0809E+00
  7.7600E-01  1.0550E+00  1.0261E+00  2.0811E+00
  7.7700E-01  1.0553E+00  1.0260E+00  2.0814E+00
  7.7800E-01  1.0556E+00  1.0259E+00  2.0816E+00
  7.7900E-01  1.0560E+00  1.0259E+00  2.0818E+00
  7.8000E-01  1.0563E+00  1.0258E+00  2.0821E+00
  7.8100E-01  1.0566E+00  1.0257E+00  2.0823E+00
  7.8200E-01  1.0569E+00  1.0256E+00  2.0825E+00
  7.8300E-01  1.0572E+00  1.0255E+00  2.0828E+00
  7.8400E-01  1.0576E+00  1.0254E+00  2.0830E+00
  7.8500E-01  1.0579E+00  1.0253E+00  2.0832E+00
  7.8600E-01  1.0582E+00  1.0253E+00  2.0835E+00
  7.8700E-01  1.0585E+00  1.0252E+00  2.0836E+00
  7.8800E-01  1.0587E+00  1.0251E+00  2.0838E+00
  7.8900E-01  1.0590E+00  1.0250E+00  2.0840E+00
  7.9000E-01  1.0592E+00  1.0249E+00  2.0842E+00
  7.9100E-01  1.0595E+00  1.0249E+00  2.0844E+00
  7.9200E-01  1.0598E+00  1.0248E+00  2.0845E+00
  7.9300E-01  1.0600E+00  1.0247E+00  2.0847E+00
  7.9400E-01  1.0603E+00  1.0246E+00  2.0849E+00
  7.9500E-01  1.0606E+00  1.0245E+00  2.0851E+00
  7.9600E-01  1.0609E+00  1.0244E+00  2.0853E+00
  7.9700E-01  1.0612E+00  1.0243E+00  2.0855E+00
  7.9800E-01  1.0614E+00  1.0243E+00  2.0857E+00
  7.9900E-01  1.0616E+00  1.0242E+00  2.0858E+00
