# GGADT v1.2.1
# =-=-=
# Total cross sections as a function of energy
# -----------------------------------
# Parameter values
# -----------------------------------
# a_eff:                               3.29355E-01 micron
# ephot_min:                           6.00000E-01kiloelectron-vo
# ephot_max:                           8.00000E-01kiloelectron-vo
# nephots:                                     200
# Material file:                                   metallic_iron
# geometry:                                        ellipsoid
# angle_mode:                                      random
# ngrain:                                      128
# norientations:                                 1
# grain-axis-z:                        3.68446E-01 micron
# grain-axis-y:                        3.68446E-01 micron
# grain-axis-z:                        2.63175E-01 micron
# grid-width:                          7.36891E-01 micron
# axes-convention:                                 ddscat
# parameter_file_name:                             large_params_random.ini
# -----------------------------------
 # [ephot (kiloelectron-volt)] [Q_sca] [Q_abs] [Q_ext]
  6.0000E-01  2.2674E+00  6.4770E-01  2.9151E+00
  6.0100E-01  2.2630E+00  6.4640E-01  2.9094E+00
  6.0200E-01  2.2584E+00  6.4510E-01  2.9035E+00
  6.0300E-01  2.2537E+00  6.4379E-01  2.8974E+00
  6.0400E-01  2.2487E+00  6.4247E-01  2.8912E+00
  6.0500E-01  2.2436E+00  6.4113E-01  2.8847E+00
  6.0600E-01  2.2383E+00  6.3979E-01  2.8780E+00
  6.0700E-01  2.2327E+00  6.3843E-01  2.8712E+00
  6.0800E-01  2.2270E+00  6.3708E-01  2.8641E+00
  6.0900E-01  2.2208E+00  6.3583E-01  2.8566E+00
  6.1000E-01  2.2144E+00  6.3457E-01  2.8489E+00
  6.1100E-01  2.2078E+00  6.3330E-01  2.8411E+00
  6.1200E-01  2.2009E+00  6.3202E-01  2.8330E+00
  6.1300E-01  2.1939E+00  6.3073E-01  2.8246E+00
  6.1400E-01  2.1867E+00  6.2943E-01  2.8161E+00
  6.1500E-01  2.1792E+00  6.2812E-01  2.8074E+00
  6.1600E-01  2.1716E+00  6.2680E-01  2.7984E+00
  6.1700E-01  2.1637E+00  6.2547E-01  2.7892E+00
  6.1800E-01  2.1555E+00  6.2416E-01  2.7797E+00
  6.1900E-01  2.1467E+00  6.2293E-01  2.7696E+00
  6.2000E-01  2.1376E+00  6.2169E-01  2.7593E+00
  6.2100E-01  2.1283E+00  6.2044E-01  2.7488E+00
  6.2200E-01  2.1188E+00  6.1918E-01  2.7380E+00
  6.2300E-01  2.1090E+00  6.1791E-01  2.7269E+00
  6.2400E-01  2.0990E+00  6.1664E-01  2.7157E+00
  6.2500E-01  2.0888E+00  6.1535E-01  2.7042E+00
  6.2600E-01  2.0783E+00  6.1405E-01  2.6924E+00
  6.2700E-01  2.0676E+00  6.1275E-01  2.6804E+00
  6.2800E-01  2.0565E+00  6.1145E-01  2.6679E+00
  6.2900E-01  2.0444E+00  6.1019E-01  2.6546E+00
  6.3000E-01  2.0321E+00  6.0893E-01  2.6410E+00
  6.3100E-01  2.0195E+00  6.0766E-01  2.6271E+00
  6.3200E-01  2.0066E+00  6.0638E-01  2.6130E+00
  6.3300E-01  1.9935E+00  6.0509E-01  2.5986E+00
  6.3400E-01  1.9801E+00  6.0379E-01  2.5839E+00
  6.3500E-01  1.9664E+00  6.0248E-01  2.5689E+00
  6.3600E-01  1.9525E+00  6.0116E-01  2.5537E+00
  6.3700E-01  1.9383E+00  5.9983E-01  2.5382E+00
  6.3800E-01  1.9238E+00  5.9849E-01  2.5223E+00
  6.3900E-01  1.9074E+00  5.9720E-01  2.5046E+00
  6.4000E-01  1.8906E+00  5.9590E-01  2.4865E+00
  6.4100E-01  1.8736E+00  5.9459E-01  2.4682E+00
  6.4200E-01  1.8563E+00  5.9327E-01  2.4496E+00
  6.4300E-01  1.8387E+00  5.9193E-01  2.4307E+00
  6.4400E-01  1.8209E+00  5.9059E-01  2.4114E+00
  6.4500E-01  1.8027E+00  5.8924E-01  2.3919E+00
  6.4600E-01  1.7842E+00  5.8788E-01  2.3721E+00
  6.4700E-01  1.7655E+00  5.8651E-01  2.3520E+00
  6.4800E-01  1.7464E+00  5.8513E-01  2.3316E+00
  6.4900E-01  1.7246E+00  5.8380E-01  2.3084E+00
  6.5000E-01  1.7017E+00  5.8249E-01  2.2842E+00
  6.5100E-01  1.6785E+00  5.8117E-01  2.2597E+00
  6.5200E-01  1.6550E+00  5.7983E-01  2.2348E+00
  6.5300E-01  1.6312E+00  5.7849E-01  2.2096E+00
  6.5400E-01  1.6070E+00  5.7714E-01  2.1841E+00
  6.5500E-01  1.5826E+00  5.7578E-01  2.1583E+00
  6.5600E-01  1.5578E+00  5.7440E-01  2.1322E+00
  6.5700E-01  1.5328E+00  5.7302E-01  2.1059E+00
  6.5800E-01  1.5076E+00  5.7163E-01  2.0792E+00
  6.5900E-01  1.4802E+00  5.7027E-01  2.0505E+00
  6.6000E-01  1.4482E+00  5.6899E-01  2.0172E+00
  6.6100E-01  1.4159E+00  5.6770E-01  1.9836E+00
  6.6200E-01  1.3833E+00  5.6641E-01  1.9497E+00
  6.6300E-01  1.3505E+00  5.6510E-01  1.9156E+00
  6.6400E-01  1.3174E+00  5.6379E-01  1.8812E+00
  6.6500E-01  1.2841E+00  5.6247E-01  1.8466E+00
  6.6600E-01  1.2507E+00  5.6114E-01  1.8118E+00
  6.6700E-01  1.2171E+00  5.5979E-01  1.7769E+00
  6.6800E-01  1.1834E+00  5.5844E-01  1.7419E+00
  6.6900E-01  1.1496E+00  5.5708E-01  1.7067E+00
  6.7000E-01  1.1078E+00  5.5586E-01  1.6637E+00
  6.7100E-01  1.0615E+00  5.5470E-01  1.6162E+00
  6.7200E-01  1.0153E+00  5.5354E-01  1.5689E+00
  6.7300E-01  9.6938E-01  5.5237E-01  1.5217E+00
  6.7400E-01  9.2373E-01  5.5119E-01  1.4749E+00
  6.7500E-01  8.7844E-01  5.5000E-01  1.4284E+00
  6.7600E-01  8.3361E-01  5.4881E-01  1.3824E+00
  6.7700E-01  7.8932E-01  5.4761E-01  1.3369E+00
  6.7800E-01  7.4563E-01  5.4640E-01  1.2920E+00
  6.7900E-01  7.0264E-01  5.4518E-01  1.2478E+00
  6.8000E-01  6.6044E-01  5.4395E-01  1.2044E+00
  6.8100E-01  5.9826E-01  5.4286E-01  1.1411E+00
  6.8200E-01  5.3388E-01  5.4181E-01  1.0757E+00
  6.8300E-01  4.7270E-01  5.4074E-01  1.0134E+00
  6.8400E-01  4.1505E-01  5.3967E-01  9.5472E-01
  6.8500E-01  3.6125E-01  5.3859E-01  8.9984E-01
  6.8600E-01  3.1159E-01  5.3750E-01  8.4909E-01
  6.8700E-01  2.6635E-01  5.3641E-01  8.0276E-01
  6.8800E-01  2.2581E-01  5.3531E-01  7.6112E-01
  6.8900E-01  1.9022E-01  5.3420E-01  7.2442E-01
  6.9000E-01  1.5981E-01  5.3309E-01  6.9290E-01
  6.9100E-01  1.3088E-01  5.3848E-01  6.6936E-01
  6.9200E-01  1.0932E-01  5.3654E-01  6.4586E-01
  6.9300E-01  9.6355E-02  5.3556E-01  6.3192E-01
  6.9400E-01  1.0428E-01  5.4443E-01  6.4871E-01
  6.9500E-01  1.2570E-01  5.3234E-01  6.5805E-01
  6.9600E-01  1.8895E-01  5.3358E-01  7.2253E-01
  6.9700E-01  2.9033E-01  5.3544E-01  8.2577E-01
  6.9800E-01  4.5163E-01  5.3890E-01  9.9053E-01
  6.9900E-01  6.9067E-01  5.3887E-01  1.2295E+00
  7.0000E-01  1.0272E+00  5.5644E-01  1.5837E+00
  7.0100E-01  1.4850E+00  5.4869E-01  2.0337E+00
  7.0200E-01  1.9925E+00  5.8807E-01  2.5806E+00
  7.0300E-01  2.4421E+00  6.0667E-01  3.0488E+00
  7.0400E-01  2.1225E+00  7.1060E-01  2.8331E+00
  7.0500E-01  1.2961E+00  9.4202E-01  2.2381E+00
  7.0600E-01  1.1657E+00  1.1404E+00  2.3061E+00
  7.0700E-01  1.1373E+00  1.1468E+00  2.2841E+00
  7.0800E-01  1.1288E+00  1.1449E+00  2.2738E+00
  7.0900E-01  1.1261E+00  1.1409E+00  2.2669E+00
  7.1000E-01  1.1280E+00  1.1353E+00  2.2633E+00
  7.1100E-01  1.1270E+00  1.1276E+00  2.2546E+00
  7.1200E-01  1.0978E+00  1.1205E+00  2.2183E+00
  7.1300E-01  1.0658E+00  1.1172E+00  2.1830E+00
  7.1400E-01  1.0427E+00  1.1139E+00  2.1567E+00
  7.1500E-01  1.0035E+00  1.1089E+00  2.1124E+00
  7.1600E-01  9.4582E-01  1.1045E+00  2.0503E+00
  7.1700E-01  8.8431E-01  1.1030E+00  1.9873E+00
  7.1800E-01  9.5872E-01  1.1158E+00  2.0746E+00
  7.1900E-01  1.0770E+00  1.1376E+00  2.2146E+00
  7.2000E-01  1.1008E+00  1.1410E+00  2.2418E+00
  7.2100E-01  1.1185E+00  1.1380E+00  2.2566E+00
  7.2200E-01  1.1329E+00  1.1329E+00  2.2658E+00
  7.2300E-01  1.1435E+00  1.1278E+00  2.2712E+00
  7.2400E-01  1.1495E+00  1.1227E+00  2.2723E+00
  7.2500E-01  1.1467E+00  1.1196E+00  2.2663E+00
  7.2600E-01  1.1446E+00  1.1175E+00  2.2621E+00
  7.2700E-01  1.1444E+00  1.1159E+00  2.2603E+00
  7.2800E-01  1.1447E+00  1.1136E+00  2.2583E+00
  7.2900E-01  1.1413E+00  1.1125E+00  2.2538E+00
  7.3000E-01  1.1406E+00  1.1117E+00  2.2522E+00
  7.3100E-01  1.1393E+00  1.1104E+00  2.2498E+00
  7.3200E-01  1.1380E+00  1.1096E+00  2.2476E+00
  7.3300E-01  1.1368E+00  1.1089E+00  2.2458E+00
  7.3400E-01  1.1342E+00  1.1084E+00  2.2427E+00
  7.3500E-01  1.1362E+00  1.1076E+00  2.2438E+00
  7.3600E-01  1.1351E+00  1.1077E+00  2.2428E+00
  7.3700E-01  1.1373E+00  1.1077E+00  2.2450E+00
  7.3800E-01  1.1414E+00  1.1062E+00  2.2476E+00
  7.3900E-01  1.1429E+00  1.1047E+00  2.2476E+00
  7.4000E-01  1.1442E+00  1.1042E+00  2.2483E+00
  7.4100E-01  1.1433E+00  1.1038E+00  2.2472E+00
  7.4200E-01  1.1427E+00  1.1034E+00  2.2461E+00
  7.4300E-01  1.1435E+00  1.1031E+00  2.2466E+00
  7.4400E-01  1.1441E+00  1.1030E+00  2.2471E+00
  7.4500E-01  1.1468E+00  1.1024E+00  2.2491E+00
  7.4600E-01  1.1474E+00  1.1021E+00  2.2495E+00
  7.4700E-01  1.1480E+00  1.1018E+00  2.2498E+00
  7.4800E-01  1.1487E+00  1.1015E+00  2.2501E+00
  7.4900E-01  1.1494E+00  1.1012E+00  2.2505E+00
  7.5000E-01  1.1507E+00  1.1009E+00  2.2516E+00
  7.5100E-01  1.1520E+00  1.1006E+00  2.2527E+00
  7.5200E-01  1.1534E+00  1.1003E+00  2.2537E+00
  7.5300E-01  1.1548E+00  1.1000E+00  2.2548E+00
  7.5400E-01  1.1562E+00  1.0997E+00  2.2559E+00
  7.5500E-01  1.1576E+00  1.0994E+00  2.2571E+00
  7.5600E-01  1.1591E+00  1.0991E+00  2.2582E+00
  7.5700E-01  1.1605E+00  1.0988E+00  2.2593E+00
  7.5800E-01  1.1620E+00  1.0985E+00  2.2605E+00
  7.5900E-01  1.1635E+00  1.0982E+00  2.2617E+00
  7.6000E-01  1.1650E+00  1.0979E+00  2.2629E+00
  7.6100E-01  1.1665E+00  1.0975E+00  2.2641E+00
  7.6200E-01  1.1680E+00  1.0972E+00  2.2652E+00
  7.6300E-01  1.1694E+00  1.0969E+00  2.2664E+00
  7.6400E-01  1.1709E+00  1.0966E+00  2.2675E+00
  7.6500E-01  1.1724E+00  1.0963E+00  2.2687E+00
  7.6600E-01  1.1739E+00  1.0960E+00  2.2699E+00
  7.6700E-01  1.1754E+00  1.0957E+00  2.2711E+00
  7.6800E-01  1.1770E+00  1.0954E+00  2.2723E+00
  7.6900E-01  1.1785E+00  1.0950E+00  2.2736E+00
  7.7000E-01  1.1801E+00  1.0947E+00  2.2748E+00
  7.7100E-01  1.1817E+00  1.0944E+00  2.2761E+00
  7.7200E-01  1.1833E+00  1.0940E+00  2.2774E+00
  7.7300E-01  1.1850E+00  1.0937E+00  2.2787E+00
  7.7400E-01  1.1864E+00  1.0934E+00  2.2798E+00
  7.7500E-01  1.1877E+00  1.0931E+00  2.2808E+00
  7.7600E-01  1.1891E+00  1.0927E+00  2.2818E+00
  7.7700E-01  1.1905E+00  1.0924E+00  2.2829E+00
  7.7800E-01  1.1918E+00  1.0921E+00  2.2839E+00
  7.7900E-01  1.1932E+00  1.0918E+00  2.2850E+00
  7.8000E-01  1.1946E+00  1.0914E+00  2.2861E+00
  7.8100E-01  1.1961E+00  1.0911E+00  2.2872E+00
  7.8200E-01  1.1975E+00  1.0908E+00  2.2883E+00
  7.8300E-01  1.1990E+00  1.0904E+00  2.2894E+00
  7.8400E-01  1.2005E+00  1.0901E+00  2.2905E+00
  7.8500E-01  1.2020E+00  1.0897E+00  2.2917E+00
  7.8600E-01  1.2034E+00  1.0894E+00  2.2927E+00
  7.8700E-01  1.2044E+00  1.0890E+00  2.2934E+00
  7.8800E-01  1.2054E+00  1.0887E+00  2.2941E+00
  7.8900E-01  1.2064E+00  1.0884E+00  2.2948E+00
  7.9000E-01  1.2074E+00  1.0881E+00  2.2955E+00
  7.9100E-01  1.2085E+00  1.0877E+00  2.2962E+00
  7.9200E-01  1.2095E+00  1.0874E+00  2.2969E+00
  7.9300E-01  1.2106E+00  1.0871E+00  2.2976E+00
  7.9400E-01  1.2116E+00  1.0867E+00  2.2984E+00
  7.9500E-01  1.2127E+00  1.0864E+00  2.2991E+00
  7.9600E-01  1.2138E+00  1.0860E+00  2.2998E+00
  7.9700E-01  1.2149E+00  1.0857E+00  2.3006E+00
  7.9800E-01  1.2160E+00  1.0853E+00  2.3013E+00
  7.9900E-01  1.2168E+00  1.0851E+00  2.3019E+00
