# GGADT v1.2.1
# =-=-=
# Total cross sections as a function of energy
# -----------------------------------
# Parameter values
# -----------------------------------
# a_eff:                               4.57097E-01 micron
# ephot_min:                           6.00000E-01kiloelectron-vo
# ephot_max:                           8.00000E-01kiloelectron-vo
# nephots:                                     200
# Material file:                                   metallic_iron
# geometry:                                        ellipsoid
# angle_mode:                                      random
# ngrain:                                      128
# norientations:                                 1
# grain-axis-z:                        5.11349E-01 micron
# grain-axis-y:                        5.11349E-01 micron
# grain-axis-z:                        3.65249E-01 micron
# grid-width:                          1.02270E+00 micron
# axes-convention:                                 ddscat
# parameter_file_name:                             large_params_random.ini
# -----------------------------------
 # [ephot (kiloelectron-volt)] [Q_sca] [Q_abs] [Q_ext]
  6.0000E-01  1.7948E+00  7.4228E-01  2.5371E+00
  6.0100E-01  1.8030E+00  7.4114E-01  2.5441E+00
  6.0200E-01  1.8112E+00  7.3999E-01  2.5512E+00
  6.0300E-01  1.8193E+00  7.3883E-01  2.5582E+00
  6.0400E-01  1.8274E+00  7.3766E-01  2.5651E+00
  6.0500E-01  1.8355E+00  7.3648E-01  2.5720E+00
  6.0600E-01  1.8435E+00  7.3529E-01  2.5788E+00
  6.0700E-01  1.8515E+00  7.3408E-01  2.5855E+00
  6.0800E-01  1.8593E+00  7.3288E-01  2.5922E+00
  6.0900E-01  1.8670E+00  7.3176E-01  2.5988E+00
  6.1000E-01  1.8746E+00  7.3064E-01  2.6052E+00
  6.1100E-01  1.8821E+00  7.2951E-01  2.6116E+00
  6.1200E-01  1.8895E+00  7.2836E-01  2.6178E+00
  6.1300E-01  1.8967E+00  7.2721E-01  2.6239E+00
  6.1400E-01  1.9039E+00  7.2604E-01  2.6300E+00
  6.1500E-01  1.9110E+00  7.2487E-01  2.6358E+00
  6.1600E-01  1.9179E+00  7.2368E-01  2.6416E+00
  6.1700E-01  1.9247E+00  7.2248E-01  2.6472E+00
  6.1800E-01  1.9313E+00  7.2130E-01  2.6526E+00
  6.1900E-01  1.9377E+00  7.2019E-01  2.6579E+00
  6.2000E-01  1.9439E+00  7.1907E-01  2.6630E+00
  6.2100E-01  1.9499E+00  7.1794E-01  2.6678E+00
  6.2200E-01  1.9557E+00  7.1680E-01  2.6725E+00
  6.2300E-01  1.9614E+00  7.1565E-01  2.6770E+00
  6.2400E-01  1.9668E+00  7.1449E-01  2.6813E+00
  6.2500E-01  1.9720E+00  7.1332E-01  2.6853E+00
  6.2600E-01  1.9769E+00  7.1214E-01  2.6890E+00
  6.2700E-01  1.9816E+00  7.1094E-01  2.6926E+00
  6.2800E-01  1.9861E+00  7.0976E-01  2.6958E+00
  6.2900E-01  1.9902E+00  7.0861E-01  2.6988E+00
  6.3000E-01  1.9940E+00  7.0746E-01  2.7015E+00
  6.3100E-01  1.9975E+00  7.0629E-01  2.7038E+00
  6.3200E-01  2.0007E+00  7.0512E-01  2.7058E+00
  6.3300E-01  2.0036E+00  7.0393E-01  2.7075E+00
  6.3400E-01  2.0060E+00  7.0274E-01  2.7088E+00
  6.3500E-01  2.0082E+00  7.0153E-01  2.7097E+00
  6.3600E-01  2.0099E+00  7.0031E-01  2.7102E+00
  6.3700E-01  2.0113E+00  6.9909E-01  2.7104E+00
  6.3800E-01  2.0122E+00  6.9785E-01  2.7101E+00
  6.3900E-01  2.0124E+00  6.9666E-01  2.7091E+00
  6.4000E-01  2.0121E+00  6.9545E-01  2.7076E+00
  6.4100E-01  2.0113E+00  6.9423E-01  2.7056E+00
  6.4200E-01  2.0100E+00  6.9301E-01  2.7030E+00
  6.4300E-01  2.0081E+00  6.9177E-01  2.6999E+00
  6.4400E-01  2.0057E+00  6.9052E-01  2.6962E+00
  6.4500E-01  2.0027E+00  6.8926E-01  2.6919E+00
  6.4600E-01  1.9991E+00  6.8799E-01  2.6871E+00
  6.4700E-01  1.9949E+00  6.8671E-01  2.6816E+00
  6.4800E-01  1.9902E+00  6.8541E-01  2.6756E+00
  6.4900E-01  1.9837E+00  6.8417E-01  2.6678E+00
  6.5000E-01  1.9761E+00  6.8294E-01  2.6590E+00
  6.5100E-01  1.9676E+00  6.8169E-01  2.6493E+00
  6.5200E-01  1.9584E+00  6.8044E-01  2.6388E+00
  6.5300E-01  1.9483E+00  6.7918E-01  2.6274E+00
  6.5400E-01  1.9373E+00  6.7790E-01  2.6152E+00
  6.5500E-01  1.9255E+00  6.7661E-01  2.6021E+00
  6.5600E-01  1.9128E+00  6.7532E-01  2.5881E+00
  6.5700E-01  1.8993E+00  6.7401E-01  2.5733E+00
  6.5800E-01  1.8849E+00  6.7269E-01  2.5576E+00
  6.5900E-01  1.8683E+00  6.7140E-01  2.5397E+00
  6.6000E-01  1.8475E+00  6.7018E-01  2.5177E+00
  6.6100E-01  1.8254E+00  6.6896E-01  2.4944E+00
  6.6200E-01  1.8021E+00  6.6772E-01  2.4698E+00
  6.6300E-01  1.7775E+00  6.6648E-01  2.4440E+00
  6.6400E-01  1.7517E+00  6.6523E-01  2.4169E+00
  6.6500E-01  1.7246E+00  6.6396E-01  2.3886E+00
  6.6600E-01  1.6964E+00  6.6269E-01  2.3591E+00
  6.6700E-01  1.6670E+00  6.6140E-01  2.3284E+00
  6.6800E-01  1.6365E+00  6.6011E-01  2.2966E+00
  6.6900E-01  1.6048E+00  6.5880E-01  2.2636E+00
  6.7000E-01  1.5639E+00  6.5762E-01  2.2215E+00
  6.7100E-01  1.5167E+00  6.5651E-01  2.1732E+00
  6.7200E-01  1.4679E+00  6.5539E-01  2.1233E+00
  6.7300E-01  1.4176E+00  6.5426E-01  2.0718E+00
  6.7400E-01  1.3659E+00  6.5312E-01  2.0191E+00
  6.7500E-01  1.3131E+00  6.5197E-01  1.9651E+00
  6.7600E-01  1.2593E+00  6.5082E-01  1.9101E+00
  6.7700E-01  1.2046E+00  6.4965E-01  1.8542E+00
  6.7800E-01  1.1492E+00  6.4848E-01  1.7977E+00
  6.7900E-01  1.0934E+00  6.4730E-01  1.7407E+00
  6.8000E-01  1.0372E+00  6.4610E-01  1.6833E+00
  6.8100E-01  9.5188E-01  6.4505E-01  1.5969E+00
  6.8200E-01  8.6067E-01  6.4402E-01  1.5047E+00
  6.8300E-01  7.7141E-01  6.4298E-01  1.4144E+00
  6.8400E-01  6.8502E-01  6.4193E-01  1.3269E+00
  6.8500E-01  6.0242E-01  6.4088E-01  1.2433E+00
  6.8600E-01  5.2452E-01  6.3982E-01  1.1643E+00
  6.8700E-01  4.5219E-01  6.3875E-01  1.0909E+00
  6.8800E-01  3.8626E-01  6.3767E-01  1.0239E+00
  6.8900E-01  3.2753E-01  6.3658E-01  9.6412E-01
  6.9000E-01  2.7672E-01  6.3549E-01  9.1221E-01
  6.9100E-01  2.2730E-01  6.4077E-01  8.6806E-01
  6.9200E-01  1.9067E-01  6.3888E-01  8.2955E-01
  6.9300E-01  1.6849E-01  6.3792E-01  8.0641E-01
  6.9400E-01  1.8152E-01  6.4656E-01  8.2809E-01
  6.9500E-01  2.1898E-01  6.3476E-01  8.5374E-01
  6.9600E-01  3.2549E-01  6.3597E-01  9.6146E-01
  6.9700E-01  4.9099E-01  6.3780E-01  1.1288E+00
  6.9800E-01  7.4053E-01  6.4118E-01  1.3817E+00
  6.9900E-01  1.0804E+00  6.4115E-01  1.7216E+00
  7.0000E-01  1.4787E+00  6.5818E-01  2.1368E+00
  7.0100E-01  1.8978E+00  6.5070E-01  2.5485E+00
  7.0200E-01  2.0383E+00  6.8817E-01  2.7265E+00
  7.0300E-01  1.7441E+00  7.0539E-01  2.4495E+00
  7.0400E-01  1.2156E+00  7.9586E-01  2.0115E+00
  7.0500E-01  1.1928E+00  9.5951E-01  2.1523E+00
  7.0600E-01  1.0649E+00  1.0548E+00  2.1197E+00
  7.0700E-01  1.0535E+00  1.0574E+00  2.1109E+00
  7.0800E-01  1.0501E+00  1.0567E+00  2.1067E+00
  7.0900E-01  1.0490E+00  1.0550E+00  2.1040E+00
  7.1000E-01  1.0498E+00  1.0528E+00  2.1026E+00
  7.1100E-01  1.0505E+00  1.0496E+00  2.1001E+00
  7.1200E-01  1.0421E+00  1.0467E+00  2.0888E+00
  7.1300E-01  1.0306E+00  1.0454E+00  2.0760E+00
  7.1400E-01  1.0220E+00  1.0440E+00  2.0660E+00
  7.1500E-01  1.0056E+00  1.0420E+00  2.0475E+00
  7.1600E-01  9.7616E-01  1.0401E+00  2.0163E+00
  7.1700E-01  9.3851E-01  1.0395E+00  1.9780E+00
  7.1800E-01  9.7768E-01  1.0448E+00  2.0225E+00
  7.1900E-01  1.0290E+00  1.0537E+00  2.0827E+00
  7.2000E-01  1.0388E+00  1.0550E+00  2.0938E+00
  7.2100E-01  1.0460E+00  1.0538E+00  2.0999E+00
  7.2200E-01  1.0518E+00  1.0518E+00  2.1036E+00
  7.2300E-01  1.0562E+00  1.0497E+00  2.1059E+00
  7.2400E-01  1.0594E+00  1.0476E+00  2.1070E+00
  7.2500E-01  1.0596E+00  1.0464E+00  2.1060E+00
  7.2600E-01  1.0599E+00  1.0455E+00  2.1054E+00
  7.2700E-01  1.0606E+00  1.0448E+00  2.1054E+00
  7.2800E-01  1.0619E+00  1.0439E+00  2.1058E+00
  7.2900E-01  1.0615E+00  1.0434E+00  2.1049E+00
  7.3000E-01  1.0617E+00  1.0431E+00  2.1048E+00
  7.3100E-01  1.0620E+00  1.0426E+00  2.1046E+00
  7.3200E-01  1.0622E+00  1.0423E+00  2.1044E+00
  7.3300E-01  1.0622E+00  1.0420E+00  2.1042E+00
  7.3400E-01  1.0616E+00  1.0418E+00  2.1034E+00
  7.3500E-01  1.0629E+00  1.0414E+00  2.1043E+00
  7.3600E-01  1.0624E+00  1.0415E+00  2.1039E+00
  7.3700E-01  1.0631E+00  1.0415E+00  2.1046E+00
  7.3800E-01  1.0655E+00  1.0409E+00  2.1063E+00
  7.3900E-01  1.0670E+00  1.0402E+00  2.1072E+00
  7.4000E-01  1.0678E+00  1.0400E+00  2.1078E+00
  7.4100E-01  1.0677E+00  1.0399E+00  2.1076E+00
  7.4200E-01  1.0679E+00  1.0397E+00  2.1076E+00
  7.4300E-01  1.0683E+00  1.0396E+00  2.1079E+00
  7.4400E-01  1.0686E+00  1.0395E+00  2.1081E+00
  7.4500E-01  1.0699E+00  1.0393E+00  2.1092E+00
  7.4600E-01  1.0703E+00  1.0391E+00  2.1094E+00
  7.4700E-01  1.0707E+00  1.0390E+00  2.1097E+00
  7.4800E-01  1.0712E+00  1.0389E+00  2.1100E+00
  7.4900E-01  1.0716E+00  1.0388E+00  2.1104E+00
  7.5000E-01  1.0722E+00  1.0386E+00  2.1109E+00
  7.5100E-01  1.0729E+00  1.0385E+00  2.1114E+00
  7.5200E-01  1.0735E+00  1.0384E+00  2.1119E+00
  7.5300E-01  1.0742E+00  1.0383E+00  2.1124E+00
  7.5400E-01  1.0748E+00  1.0382E+00  2.1130E+00
  7.5500E-01  1.0755E+00  1.0380E+00  2.1135E+00
  7.5600E-01  1.0761E+00  1.0379E+00  2.1140E+00
  7.5700E-01  1.0768E+00  1.0378E+00  2.1146E+00
  7.5800E-01  1.0775E+00  1.0376E+00  2.1151E+00
  7.5900E-01  1.0782E+00  1.0375E+00  2.1157E+00
  7.6000E-01  1.0789E+00  1.0374E+00  2.1163E+00
  7.6100E-01  1.0796E+00  1.0372E+00  2.1168E+00
  7.6200E-01  1.0803E+00  1.0371E+00  2.1174E+00
  7.6300E-01  1.0809E+00  1.0370E+00  2.1179E+00
  7.6400E-01  1.0816E+00  1.0369E+00  2.1184E+00
  7.6500E-01  1.0822E+00  1.0367E+00  2.1190E+00
  7.6600E-01  1.0829E+00  1.0366E+00  2.1195E+00
  7.6700E-01  1.0836E+00  1.0365E+00  2.1201E+00
  7.6800E-01  1.0843E+00  1.0363E+00  2.1206E+00
  7.6900E-01  1.0850E+00  1.0362E+00  2.1212E+00
  7.7000E-01  1.0857E+00  1.0360E+00  2.1218E+00
  7.7100E-01  1.0864E+00  1.0359E+00  2.1223E+00
  7.7200E-01  1.0871E+00  1.0358E+00  2.1229E+00
  7.7300E-01  1.0879E+00  1.0356E+00  2.1235E+00
  7.7400E-01  1.0885E+00  1.0355E+00  2.1240E+00
  7.7500E-01  1.0891E+00  1.0353E+00  2.1245E+00
  7.7600E-01  1.0897E+00  1.0352E+00  2.1250E+00
  7.7700E-01  1.0904E+00  1.0351E+00  2.1255E+00
  7.7800E-01  1.0910E+00  1.0349E+00  2.1260E+00
  7.7900E-01  1.0917E+00  1.0348E+00  2.1265E+00
  7.8000E-01  1.0923E+00  1.0347E+00  2.1270E+00
  7.8100E-01  1.0930E+00  1.0345E+00  2.1275E+00
  7.8200E-01  1.0936E+00  1.0344E+00  2.1280E+00
  7.8300E-01  1.0943E+00  1.0342E+00  2.1285E+00
  7.8400E-01  1.0950E+00  1.0341E+00  2.1290E+00
  7.8500E-01  1.0957E+00  1.0339E+00  2.1296E+00
  7.8600E-01  1.0963E+00  1.0338E+00  2.1301E+00
  7.8700E-01  1.0968E+00  1.0336E+00  2.1305E+00
  7.8800E-01  1.0974E+00  1.0335E+00  2.1309E+00
  7.8900E-01  1.0979E+00  1.0334E+00  2.1313E+00
  7.9000E-01  1.0985E+00  1.0332E+00  2.1317E+00
  7.9100E-01  1.0990E+00  1.0331E+00  2.1321E+00
  7.9200E-01  1.0996E+00  1.0329E+00  2.1325E+00
  7.9300E-01  1.1001E+00  1.0328E+00  2.1329E+00
  7.9400E-01  1.1007E+00  1.0327E+00  2.1334E+00
  7.9500E-01  1.1013E+00  1.0325E+00  2.1338E+00
  7.9600E-01  1.1019E+00  1.0324E+00  2.1342E+00
  7.9700E-01  1.1025E+00  1.0322E+00  2.1347E+00
  7.9800E-01  1.1031E+00  1.0320E+00  2.1351E+00
  7.9900E-01  1.1035E+00  1.0319E+00  2.1354E+00
