# GGADT v1.2.1
# =-=-=
# Total cross sections as a function of energy
# -----------------------------------
# Parameter values
# -----------------------------------
# a_eff:                               6.80645E-01 micron
# ephot_min:                           6.00000E-01kiloelectron-vo
# ephot_max:                           8.00000E-01kiloelectron-vo
# nephots:                                     200
# Material file:                                   metallic_iron
# geometry:                                        ellipsoid
# angle_mode:                                      random
# ngrain:                                      128
# norientations:                                 1
# grain-axis-z:                        7.61430E-01 micron
# grain-axis-y:                        7.61430E-01 micron
# grain-axis-z:                        5.43879E-01 micron
# grid-width:                          1.52286E+00 micron
# axes-convention:                                 ddscat
# parameter_file_name:                             large_params_random.ini
# -----------------------------------
 # [ephot (kiloelectron-volt)] [Q_sca] [Q_abs] [Q_ext]
  6.0000E-01  1.0900E+00  8.1350E-01  1.9035E+00
  6.0100E-01  1.0886E+00  8.1273E-01  1.9013E+00
  6.0200E-01  1.0873E+00  8.1195E-01  1.8992E+00
  6.0300E-01  1.0861E+00  8.1117E-01  1.8972E+00
  6.0400E-01  1.0850E+00  8.1037E-01  1.8953E+00
  6.0500E-01  1.0840E+00  8.0957E-01  1.8935E+00
  6.0600E-01  1.0831E+00  8.0875E-01  1.8918E+00
  6.0700E-01  1.0824E+00  8.0793E-01  1.8903E+00
  6.0800E-01  1.0818E+00  8.0710E-01  1.8889E+00
  6.0900E-01  1.0813E+00  8.0634E-01  1.8876E+00
  6.1000E-01  1.0810E+00  8.0556E-01  1.8865E+00
  6.1100E-01  1.0808E+00  8.0478E-01  1.8856E+00
  6.1200E-01  1.0809E+00  8.0399E-01  1.8849E+00
  6.1300E-01  1.0811E+00  8.0319E-01  1.8843E+00
  6.1400E-01  1.0816E+00  8.0238E-01  1.8839E+00
  6.1500E-01  1.0822E+00  8.0156E-01  1.8838E+00
  6.1600E-01  1.0831E+00  8.0074E-01  1.8838E+00
  6.1700E-01  1.0842E+00  7.9990E-01  1.8841E+00
  6.1800E-01  1.0855E+00  7.9907E-01  1.8846E+00
  6.1900E-01  1.0871E+00  7.9830E-01  1.8854E+00
  6.2000E-01  1.0889E+00  7.9751E-01  1.8864E+00
  6.2100E-01  1.0910E+00  7.9671E-01  1.8878E+00
  6.2200E-01  1.0934E+00  7.9591E-01  1.8894E+00
  6.2300E-01  1.0961E+00  7.9510E-01  1.8912E+00
  6.2400E-01  1.0991E+00  7.9428E-01  1.8934E+00
  6.2500E-01  1.1024E+00  7.9345E-01  1.8959E+00
  6.2600E-01  1.1060E+00  7.9261E-01  1.8986E+00
  6.2700E-01  1.1100E+00  7.9176E-01  1.9017E+00
  6.2800E-01  1.1143E+00  7.9091E-01  1.9052E+00
  6.2900E-01  1.1191E+00  7.9009E-01  1.9092E+00
  6.3000E-01  1.1242E+00  7.8926E-01  1.9135E+00
  6.3100E-01  1.1298E+00  7.8843E-01  1.9182E+00
  6.3200E-01  1.1357E+00  7.8758E-01  1.9233E+00
  6.3300E-01  1.1420E+00  7.8673E-01  1.9287E+00
  6.3400E-01  1.1487E+00  7.8587E-01  1.9345E+00
  6.3500E-01  1.1557E+00  7.8499E-01  1.9407E+00
  6.3600E-01  1.1631E+00  7.8411E-01  1.9472E+00
  6.3700E-01  1.1709E+00  7.8322E-01  1.9541E+00
  6.3800E-01  1.1791E+00  7.8232E-01  1.9614E+00
  6.3900E-01  1.1884E+00  7.8145E-01  1.9698E+00
  6.4000E-01  1.1981E+00  7.8057E-01  1.9786E+00
  6.4100E-01  1.2082E+00  7.7967E-01  1.9878E+00
  6.4200E-01  1.2186E+00  7.7877E-01  1.9974E+00
  6.4300E-01  1.2295E+00  7.7786E-01  2.0074E+00
  6.4400E-01  1.2407E+00  7.7694E-01  2.0177E+00
  6.4500E-01  1.2523E+00  7.7601E-01  2.0283E+00
  6.4600E-01  1.2642E+00  7.7507E-01  2.0393E+00
  6.4700E-01  1.2764E+00  7.7412E-01  2.0505E+00
  6.4800E-01  1.2889E+00  7.7316E-01  2.0620E+00
  6.4900E-01  1.3029E+00  7.7224E-01  2.0751E+00
  6.5000E-01  1.3175E+00  7.7132E-01  2.0888E+00
  6.5100E-01  1.3323E+00  7.7039E-01  2.1027E+00
  6.5200E-01  1.3473E+00  7.6945E-01  2.1168E+00
  6.5300E-01  1.3624E+00  7.6850E-01  2.1309E+00
  6.5400E-01  1.3776E+00  7.6754E-01  2.1451E+00
  6.5500E-01  1.3927E+00  7.6657E-01  2.1593E+00
  6.5600E-01  1.4078E+00  7.6559E-01  2.1734E+00
  6.5700E-01  1.4227E+00  7.6460E-01  2.1873E+00
  6.5800E-01  1.4375E+00  7.6360E-01  2.2011E+00
  6.5900E-01  1.4527E+00  7.6262E-01  2.2153E+00
  6.6000E-01  1.4692E+00  7.6169E-01  2.2309E+00
  6.6100E-01  1.4850E+00  7.6076E-01  2.2458E+00
  6.6200E-01  1.5000E+00  7.5982E-01  2.2598E+00
  6.6300E-01  1.5139E+00  7.5886E-01  2.2728E+00
  6.6400E-01  1.5268E+00  7.5790E-01  2.2847E+00
  6.6500E-01  1.5384E+00  7.5693E-01  2.2953E+00
  6.6600E-01  1.5486E+00  7.5595E-01  2.3045E+00
  6.6700E-01  1.5572E+00  7.5496E-01  2.3122E+00
  6.6800E-01  1.5643E+00  7.5395E-01  2.3182E+00
  6.6900E-01  1.5695E+00  7.5294E-01  2.3225E+00
  6.7000E-01  1.5725E+00  7.5203E-01  2.3246E+00
  6.7100E-01  1.5719E+00  7.5116E-01  2.3230E+00
  6.7200E-01  1.5672E+00  7.5029E-01  2.3175E+00
  6.7300E-01  1.5585E+00  7.4941E-01  2.3079E+00
  6.7400E-01  1.5454E+00  7.4852E-01  2.2939E+00
  6.7500E-01  1.5278E+00  7.4762E-01  2.2755E+00
  6.7600E-01  1.5059E+00  7.4671E-01  2.2526E+00
  6.7700E-01  1.4794E+00  7.4580E-01  2.2252E+00
  6.7800E-01  1.4485E+00  7.4487E-01  2.1934E+00
  6.7900E-01  1.4133E+00  7.4394E-01  2.1572E+00
  6.8000E-01  1.3738E+00  7.4300E-01  2.1168E+00
  6.8100E-01  1.3056E+00  7.4216E-01  2.0478E+00
  6.8200E-01  1.2229E+00  7.4135E-01  1.9643E+00
  6.8300E-01  1.1328E+00  7.4052E-01  1.8733E+00
  6.8400E-01  1.0370E+00  7.3969E-01  1.7767E+00
  6.8500E-01  9.3779E-01  7.3885E-01  1.6766E+00
  6.8600E-01  8.3751E-01  7.3800E-01  1.5755E+00
  6.8700E-01  7.3867E-01  7.3715E-01  1.4758E+00
  6.8800E-01  6.4386E-01  7.3629E-01  1.3802E+00
  6.8900E-01  5.5566E-01  7.3542E-01  1.2911E+00
  6.9000E-01  4.7654E-01  7.3454E-01  1.2111E+00
  6.9100E-01  3.9566E-01  7.3876E-01  1.1344E+00
  6.9200E-01  3.3558E-01  7.3725E-01  1.0728E+00
  6.9300E-01  2.9848E-01  7.3649E-01  1.0350E+00
  6.9400E-01  3.1893E-01  7.4336E-01  1.0623E+00
  6.9500E-01  3.8332E-01  7.3395E-01  1.1173E+00
  6.9600E-01  5.5272E-01  7.3492E-01  1.2876E+00
  6.9700E-01  7.9311E-01  7.3639E-01  1.5295E+00
  6.9800E-01  1.1006E+00  7.3909E-01  1.8397E+00
  6.9900E-01  1.4114E+00  7.3907E-01  2.1505E+00
  7.0000E-01  1.5641E+00  7.5246E-01  2.3166E+00
  7.0100E-01  1.4909E+00  7.4662E-01  2.2375E+00
  7.0200E-01  1.1602E+00  7.7520E-01  1.9354E+00
  7.0300E-01  1.1513E+00  7.8778E-01  1.9391E+00
  7.0400E-01  1.1056E+00  8.4789E-01  1.9535E+00
  7.0500E-01  1.0075E+00  9.3086E-01  1.9384E+00
  7.0600E-01  9.6898E-01  9.6557E-01  1.9346E+00
  7.0700E-01  9.6519E-01  9.6640E-01  1.9316E+00
  7.0800E-01  9.6405E-01  9.6617E-01  1.9302E+00
  7.0900E-01  9.6371E-01  9.6563E-01  1.9293E+00
  7.1000E-01  9.6402E-01  9.6489E-01  1.9289E+00
  7.1100E-01  9.6419E-01  9.6383E-01  1.9280E+00
  7.1200E-01  9.6132E-01  9.6286E-01  1.9242E+00
  7.1300E-01  9.5760E-01  9.6240E-01  1.9200E+00
  7.1400E-01  9.5488E-01  9.6194E-01  1.9168E+00
  7.1500E-01  9.4969E-01  9.6123E-01  1.9109E+00
  7.1600E-01  9.3959E-01  9.6061E-01  1.9002E+00
  7.1700E-01  9.2478E-01  9.6040E-01  1.8852E+00
  7.1800E-01  9.3919E-01  9.6221E-01  1.9014E+00
  7.1900E-01  9.5687E-01  9.6520E-01  1.9221E+00
  7.2000E-01  9.6020E-01  9.6565E-01  1.9259E+00
  7.2100E-01  9.6271E-01  9.6526E-01  1.9280E+00
  7.2200E-01  9.6470E-01  9.6456E-01  1.9293E+00
  7.2300E-01  9.6618E-01  9.6386E-01  1.9300E+00
  7.2400E-01  9.6718E-01  9.6317E-01  1.9303E+00
  7.2500E-01  9.6716E-01  9.6274E-01  1.9299E+00
  7.2600E-01  9.6718E-01  9.6245E-01  1.9296E+00
  7.2700E-01  9.6737E-01  9.6222E-01  1.9296E+00
  7.2800E-01  9.6774E-01  9.6190E-01  1.9296E+00
  7.2900E-01  9.6757E-01  9.6174E-01  1.9293E+00
  7.3000E-01  9.6763E-01  9.6162E-01  1.9293E+00
  7.3100E-01  9.6771E-01  9.6145E-01  1.9292E+00
  7.3200E-01  9.6773E-01  9.6133E-01  1.9291E+00
  7.3300E-01  9.6773E-01  9.6124E-01  1.9290E+00
  7.3400E-01  9.6756E-01  9.6117E-01  1.9287E+00
  7.3500E-01  9.6794E-01  9.6105E-01  1.9290E+00
  7.3600E-01  9.6779E-01  9.6107E-01  1.9289E+00
  7.3700E-01  9.6801E-01  9.6107E-01  1.9291E+00
  7.3800E-01  9.6873E-01  9.6085E-01  1.9296E+00
  7.3900E-01  9.6918E-01  9.6064E-01  1.9298E+00
  7.4000E-01  9.6943E-01  9.6056E-01  1.9300E+00
  7.4100E-01  9.6941E-01  9.6052E-01  1.9299E+00
  7.4200E-01  9.6946E-01  9.6045E-01  1.9299E+00
  7.4300E-01  9.6959E-01  9.6041E-01  1.9300E+00
  7.4400E-01  9.6966E-01  9.6040E-01  1.9301E+00
  7.4500E-01  9.7006E-01  9.6031E-01  1.9304E+00
  7.4600E-01  9.7019E-01  9.6027E-01  1.9305E+00
  7.4700E-01  9.7031E-01  9.6023E-01  1.9305E+00
  7.4800E-01  9.7044E-01  9.6018E-01  1.9306E+00
  7.4900E-01  9.7057E-01  9.6014E-01  1.9307E+00
  7.5000E-01  9.7076E-01  9.6010E-01  1.9309E+00
  7.5100E-01  9.7095E-01  9.6006E-01  1.9310E+00
  7.5200E-01  9.7114E-01  9.6002E-01  1.9312E+00
  7.5300E-01  9.7133E-01  9.5997E-01  1.9313E+00
  7.5400E-01  9.7152E-01  9.5993E-01  1.9315E+00
  7.5500E-01  9.7172E-01  9.5989E-01  1.9316E+00
  7.5600E-01  9.7192E-01  9.5984E-01  1.9318E+00
  7.5700E-01  9.7212E-01  9.5980E-01  1.9319E+00
  7.5800E-01  9.7232E-01  9.5975E-01  1.9321E+00
  7.5900E-01  9.7252E-01  9.5971E-01  1.9322E+00
  7.6000E-01  9.7272E-01  9.5966E-01  1.9324E+00
  7.6100E-01  9.7293E-01  9.5961E-01  1.9325E+00
  7.6200E-01  9.7312E-01  9.5957E-01  1.9327E+00
  7.6300E-01  9.7331E-01  9.5953E-01  1.9328E+00
  7.6400E-01  9.7350E-01  9.5948E-01  1.9330E+00
  7.6500E-01  9.7370E-01  9.5944E-01  1.9331E+00
  7.6600E-01  9.7390E-01  9.5939E-01  1.9333E+00
  7.6700E-01  9.7409E-01  9.5935E-01  1.9334E+00
  7.6800E-01  9.7429E-01  9.5930E-01  1.9336E+00
  7.6900E-01  9.7449E-01  9.5925E-01  1.9337E+00
  7.7000E-01  9.7470E-01  9.5921E-01  1.9339E+00
  7.7100E-01  9.7490E-01  9.5916E-01  1.9341E+00
  7.7200E-01  9.7510E-01  9.5911E-01  1.9342E+00
  7.7300E-01  9.7531E-01  9.5906E-01  1.9344E+00
  7.7400E-01  9.7550E-01  9.5901E-01  1.9345E+00
  7.7500E-01  9.7567E-01  9.5897E-01  1.9346E+00
  7.7600E-01  9.7585E-01  9.5892E-01  1.9348E+00
  7.7700E-01  9.7603E-01  9.5887E-01  1.9349E+00
  7.7800E-01  9.7621E-01  9.5883E-01  1.9350E+00
  7.7900E-01  9.7639E-01  9.5878E-01  1.9352E+00
  7.8000E-01  9.7657E-01  9.5873E-01  1.9353E+00
  7.8100E-01  9.7676E-01  9.5868E-01  1.9354E+00
  7.8200E-01  9.7694E-01  9.5863E-01  1.9356E+00
  7.8300E-01  9.7713E-01  9.5858E-01  1.9357E+00
  7.8400E-01  9.7732E-01  9.5853E-01  1.9358E+00
  7.8500E-01  9.7751E-01  9.5847E-01  1.9360E+00
  7.8600E-01  9.7769E-01  9.5842E-01  1.9361E+00
  7.8700E-01  9.7784E-01  9.5838E-01  1.9362E+00
  7.8800E-01  9.7798E-01  9.5833E-01  1.9363E+00
  7.8900E-01  9.7813E-01  9.5828E-01  1.9364E+00
  7.9000E-01  9.7828E-01  9.5823E-01  1.9365E+00
  7.9100E-01  9.7843E-01  9.5819E-01  1.9366E+00
  7.9200E-01  9.7858E-01  9.5814E-01  1.9367E+00
  7.9300E-01  9.7874E-01  9.5809E-01  1.9368E+00
  7.9400E-01  9.7889E-01  9.5804E-01  1.9369E+00
  7.9500E-01  9.7905E-01  9.5798E-01  1.9370E+00
  7.9600E-01  9.7920E-01  9.5793E-01  1.9371E+00
  7.9700E-01  9.7936E-01  9.5788E-01  1.9372E+00
  7.9800E-01  9.7952E-01  9.5783E-01  1.9374E+00
  7.9900E-01  9.7964E-01  9.5779E-01  1.9374E+00
