# GGADT v1.2.1
# =-=-=
# Total cross sections as a function of energy
# -----------------------------------
# Parameter values
# -----------------------------------
# a_eff:                               3.93226E-01 micron
# ephot_min:                           6.00000E-01kiloelectron-vo
# ephot_max:                           8.00000E-01kiloelectron-vo
# nephots:                                     200
# Material file:                                   metallic_iron
# geometry:                                        ellipsoid
# angle_mode:                                      random
# ngrain:                                      128
# norientations:                                 1
# grain-axis-z:                        4.39897E-01 micron
# grain-axis-y:                        4.39897E-01 micron
# grain-axis-z:                        3.14212E-01 micron
# grid-width:                          8.79795E-01 micron
# axes-convention:                                 ddscat
# parameter_file_name:                             large_params_random.ini
# -----------------------------------
 # [ephot (kiloelectron-volt)] [Q_sca] [Q_abs] [Q_ext]
  6.0000E-01  2.4793E+00  7.4128E-01  3.2206E+00
  6.0100E-01  2.4780E+00  7.3988E-01  3.2179E+00
  6.0200E-01  2.4765E+00  7.3847E-01  3.2150E+00
  6.0300E-01  2.4748E+00  7.3705E-01  3.2118E+00
  6.0400E-01  2.4729E+00  7.3562E-01  3.2085E+00
  6.0500E-01  2.4708E+00  7.3417E-01  3.2050E+00
  6.0600E-01  2.4685E+00  7.3271E-01  3.2012E+00
  6.0700E-01  2.4659E+00  7.3124E-01  3.1972E+00
  6.0800E-01  2.4632E+00  7.2977E-01  3.1929E+00
  6.0900E-01  2.4598E+00  7.2841E-01  3.1883E+00
  6.1000E-01  2.4563E+00  7.2705E-01  3.1833E+00
  6.1100E-01  2.4525E+00  7.2567E-01  3.1782E+00
  6.1200E-01  2.4485E+00  7.2428E-01  3.1728E+00
  6.1300E-01  2.4442E+00  7.2288E-01  3.1671E+00
  6.1400E-01  2.4397E+00  7.2147E-01  3.1612E+00
  6.1500E-01  2.4349E+00  7.2004E-01  3.1550E+00
  6.1600E-01  2.4299E+00  7.1861E-01  3.1485E+00
  6.1700E-01  2.4247E+00  7.1716E-01  3.1418E+00
  6.1800E-01  2.4190E+00  7.1573E-01  3.1348E+00
  6.1900E-01  2.4127E+00  7.1439E-01  3.1271E+00
  6.2000E-01  2.4061E+00  7.1305E-01  3.1191E+00
  6.2100E-01  2.3992E+00  7.1169E-01  3.1109E+00
  6.2200E-01  2.3920E+00  7.1032E-01  3.1023E+00
  6.2300E-01  2.3845E+00  7.0893E-01  3.0935E+00
  6.2400E-01  2.3768E+00  7.0754E-01  3.0843E+00
  6.2500E-01  2.3687E+00  7.0614E-01  3.0749E+00
  6.2600E-01  2.3604E+00  7.0472E-01  3.0651E+00
  6.2700E-01  2.3517E+00  7.0330E-01  3.0550E+00
  6.2800E-01  2.3425E+00  7.0188E-01  3.0444E+00
  6.2900E-01  2.3324E+00  7.0051E-01  3.0329E+00
  6.3000E-01  2.3219E+00  6.9914E-01  3.0211E+00
  6.3100E-01  2.3111E+00  6.9775E-01  3.0089E+00
  6.3200E-01  2.2999E+00  6.9635E-01  2.9963E+00
  6.3300E-01  2.2884E+00  6.9494E-01  2.9834E+00
  6.3400E-01  2.2766E+00  6.9352E-01  2.9701E+00
  6.3500E-01  2.2644E+00  6.9209E-01  2.9564E+00
  6.3600E-01  2.2518E+00  6.9064E-01  2.9424E+00
  6.3700E-01  2.2389E+00  6.8919E-01  2.9281E+00
  6.3800E-01  2.2254E+00  6.8773E-01  2.9132E+00
  6.3900E-01  2.2101E+00  6.8631E-01  2.8964E+00
  6.4000E-01  2.1944E+00  6.8489E-01  2.8793E+00
  6.4100E-01  2.1782E+00  6.8345E-01  2.8617E+00
  6.4200E-01  2.1616E+00  6.8200E-01  2.8436E+00
  6.4300E-01  2.1446E+00  6.8054E-01  2.8252E+00
  6.4400E-01  2.1272E+00  6.7907E-01  2.8063E+00
  6.4500E-01  2.1094E+00  6.7759E-01  2.7870E+00
  6.4600E-01  2.0911E+00  6.7610E-01  2.7672E+00
  6.4700E-01  2.0725E+00  6.7460E-01  2.7471E+00
  6.4800E-01  2.0534E+00  6.7308E-01  2.7265E+00
  6.4900E-01  2.0313E+00  6.7163E-01  2.7029E+00
  6.5000E-01  2.0079E+00  6.7019E-01  2.6781E+00
  6.5100E-01  1.9840E+00  6.6873E-01  2.6528E+00
  6.5200E-01  1.9596E+00  6.6727E-01  2.6269E+00
  6.5300E-01  1.9348E+00  6.6579E-01  2.6006E+00
  6.5400E-01  1.9094E+00  6.6431E-01  2.5738E+00
  6.5500E-01  1.8836E+00  6.6281E-01  2.5464E+00
  6.5600E-01  1.8574E+00  6.6130E-01  2.5187E+00
  6.5700E-01  1.8306E+00  6.5978E-01  2.4904E+00
  6.5800E-01  1.8035E+00  6.5825E-01  2.4617E+00
  6.5900E-01  1.7739E+00  6.5675E-01  2.4306E+00
  6.6000E-01  1.7389E+00  6.5535E-01  2.3943E+00
  6.6100E-01  1.7035E+00  6.5393E-01  2.3574E+00
  6.6200E-01  1.6674E+00  6.5250E-01  2.3199E+00
  6.6300E-01  1.6310E+00  6.5107E-01  2.2820E+00
  6.6400E-01  1.5940E+00  6.4962E-01  2.2436E+00
  6.6500E-01  1.5566E+00  6.4816E-01  2.2048E+00
  6.6600E-01  1.5189E+00  6.4669E-01  2.1656E+00
  6.6700E-01  1.4807E+00  6.4521E-01  2.1259E+00
  6.6800E-01  1.4423E+00  6.4372E-01  2.0860E+00
  6.6900E-01  1.4035E+00  6.4222E-01  2.0457E+00
  6.7000E-01  1.3553E+00  6.4087E-01  1.9961E+00
  6.7100E-01  1.3015E+00  6.3959E-01  1.9411E+00
  6.7200E-01  1.2476E+00  6.3831E-01  1.8859E+00
  6.7300E-01  1.1936E+00  6.3702E-01  1.8306E+00
  6.7400E-01  1.1397E+00  6.3571E-01  1.7754E+00
  6.7500E-01  1.0860E+00  6.3440E-01  1.7204E+00
  6.7600E-01  1.0325E+00  6.3308E-01  1.6656E+00
  6.7700E-01  9.7950E-01  6.3176E-01  1.6113E+00
  6.7800E-01  9.2697E-01  6.3042E-01  1.5574E+00
  6.7900E-01  8.7506E-01  6.2907E-01  1.5041E+00
  6.8000E-01  8.2389E-01  6.2771E-01  1.4516E+00
  6.8100E-01  7.4810E-01  6.2651E-01  1.3746E+00
  6.8200E-01  6.6920E-01  6.2534E-01  1.2945E+00
  6.8300E-01  5.9384E-01  6.2416E-01  1.2180E+00
  6.8400E-01  5.2249E-01  6.2297E-01  1.1455E+00
  6.8500E-01  4.5562E-01  6.2178E-01  1.0774E+00
  6.8600E-01  3.9366E-01  6.2058E-01  1.0142E+00
  6.8700E-01  3.3704E-01  6.1937E-01  9.5640E-01
  6.8800E-01  2.8613E-01  6.1815E-01  9.0428E-01
  6.8900E-01  2.4133E-01  6.1692E-01  8.5825E-01
  6.9000E-01  2.0296E-01  6.1568E-01  8.1864E-01
  6.9100E-01  1.6629E-01  6.2165E-01  7.8795E-01
  6.9200E-01  1.3901E-01  6.1951E-01  7.5852E-01
  6.9300E-01  1.2258E-01  6.1843E-01  7.4101E-01
  6.9400E-01  1.3254E-01  6.2824E-01  7.6078E-01
  6.9500E-01  1.5982E-01  6.1486E-01  7.7468E-01
  6.9600E-01  2.3974E-01  6.1622E-01  8.5596E-01
  6.9700E-01  3.6712E-01  6.1829E-01  9.8541E-01
  6.9800E-01  5.6788E-01  6.2212E-01  1.1900E+00
  6.9900E-01  8.6108E-01  6.2208E-01  1.4832E+00
  7.0000E-01  1.2611E+00  6.4151E-01  1.9026E+00
  7.0100E-01  1.7845E+00  6.3296E-01  2.4175E+00
  7.0200E-01  2.2962E+00  6.7631E-01  2.9725E+00
  7.0300E-01  2.6177E+00  6.9667E-01  3.3143E+00
  7.0400E-01  2.0045E+00  8.0886E-01  2.8134E+00
  7.0500E-01  1.4445E+00  1.0470E+00  2.4914E+00
  7.0600E-01  1.2538E+00  1.2318E+00  2.4856E+00
  7.0700E-01  1.2289E+00  1.2376E+00  2.4666E+00
  7.0800E-01  1.2213E+00  1.2359E+00  2.4572E+00
  7.0900E-01  1.2188E+00  1.2322E+00  2.4510E+00
  7.1000E-01  1.2206E+00  1.2273E+00  2.4479E+00
  7.1100E-01  1.2211E+00  1.2204E+00  2.4415E+00
  7.1200E-01  1.1979E+00  1.2141E+00  2.4119E+00
  7.1300E-01  1.1700E+00  1.2111E+00  2.3812E+00
  7.1400E-01  1.1496E+00  1.2082E+00  2.3578E+00
  7.1500E-01  1.1138E+00  1.2037E+00  2.3175E+00
  7.1600E-01  1.0584E+00  1.1998E+00  2.2582E+00
  7.1700E-01  9.9656E-01  1.1985E+00  2.1950E+00
  7.1800E-01  1.0681E+00  1.2099E+00  2.2781E+00
  7.1900E-01  1.1754E+00  1.2293E+00  2.4047E+00
  7.2000E-01  1.1965E+00  1.2323E+00  2.4289E+00
  7.2100E-01  1.2122E+00  1.2297E+00  2.4419E+00
  7.2200E-01  1.2250E+00  1.2251E+00  2.4502E+00
  7.2300E-01  1.2349E+00  1.2205E+00  2.4554E+00
  7.2400E-01  1.2415E+00  1.2161E+00  2.4575E+00
  7.2500E-01  1.2403E+00  1.2133E+00  2.4536E+00
  7.2600E-01  1.2394E+00  1.2114E+00  2.4509E+00
  7.2700E-01  1.2400E+00  1.2100E+00  2.4500E+00
  7.2800E-01  1.2413E+00  1.2080E+00  2.4492E+00
  7.2900E-01  1.2389E+00  1.2069E+00  2.4459E+00
  7.3000E-01  1.2387E+00  1.2062E+00  2.4449E+00
  7.3100E-01  1.2381E+00  1.2051E+00  2.4433E+00
  7.3200E-01  1.2374E+00  1.2044E+00  2.4418E+00
  7.3300E-01  1.2367E+00  1.2038E+00  2.4405E+00
  7.3400E-01  1.2347E+00  1.2033E+00  2.4380E+00
  7.3500E-01  1.2368E+00  1.2026E+00  2.4394E+00
  7.3600E-01  1.2357E+00  1.2027E+00  2.4384E+00
  7.3700E-01  1.2376E+00  1.2027E+00  2.4403E+00
  7.3800E-01  1.2419E+00  1.2014E+00  2.4433E+00
  7.3900E-01  1.2439E+00  1.2000E+00  2.4440E+00
  7.4000E-01  1.2453E+00  1.1995E+00  2.4448E+00
  7.4100E-01  1.2447E+00  1.1993E+00  2.4440E+00
  7.4200E-01  1.2445E+00  1.1988E+00  2.4433E+00
  7.4300E-01  1.2452E+00  1.1986E+00  2.4438E+00
  7.4400E-01  1.2458E+00  1.1985E+00  2.4443E+00
  7.4500E-01  1.2484E+00  1.1979E+00  2.4464E+00
  7.4600E-01  1.2491E+00  1.1977E+00  2.4468E+00
  7.4700E-01  1.2498E+00  1.1974E+00  2.4472E+00
  7.4800E-01  1.2505E+00  1.1971E+00  2.4477E+00
  7.4900E-01  1.2513E+00  1.1969E+00  2.4482E+00
  7.5000E-01  1.2526E+00  1.1966E+00  2.4492E+00
  7.5100E-01  1.2539E+00  1.1964E+00  2.4503E+00
  7.5200E-01  1.2552E+00  1.1961E+00  2.4513E+00
  7.5300E-01  1.2566E+00  1.1958E+00  2.4524E+00
  7.5400E-01  1.2579E+00  1.1956E+00  2.4535E+00
  7.5500E-01  1.2593E+00  1.1953E+00  2.4546E+00
  7.5600E-01  1.2607E+00  1.1950E+00  2.4558E+00
  7.5700E-01  1.2621E+00  1.1948E+00  2.4569E+00
  7.5800E-01  1.2636E+00  1.1945E+00  2.4580E+00
  7.5900E-01  1.2650E+00  1.1942E+00  2.4592E+00
  7.6000E-01  1.2665E+00  1.1939E+00  2.4604E+00
  7.6100E-01  1.2680E+00  1.1936E+00  2.4616E+00
  7.6200E-01  1.2694E+00  1.1933E+00  2.4627E+00
  7.6300E-01  1.2708E+00  1.1931E+00  2.4638E+00
  7.6400E-01  1.2722E+00  1.1928E+00  2.4650E+00
  7.6500E-01  1.2736E+00  1.1925E+00  2.4661E+00
  7.6600E-01  1.2751E+00  1.1922E+00  2.4673E+00
  7.6700E-01  1.2766E+00  1.1920E+00  2.4685E+00
  7.6800E-01  1.2780E+00  1.1917E+00  2.4697E+00
  7.6900E-01  1.2796E+00  1.1914E+00  2.4709E+00
  7.7000E-01  1.2811E+00  1.1911E+00  2.4721E+00
  7.7100E-01  1.2826E+00  1.1908E+00  2.4734E+00
  7.7200E-01  1.2842E+00  1.1905E+00  2.4746E+00
  7.7300E-01  1.2857E+00  1.1902E+00  2.4759E+00
  7.7400E-01  1.2871E+00  1.1899E+00  2.4770E+00
  7.7500E-01  1.2884E+00  1.1896E+00  2.4780E+00
  7.7600E-01  1.2898E+00  1.1893E+00  2.4791E+00
  7.7700E-01  1.2911E+00  1.1890E+00  2.4801E+00
  7.7800E-01  1.2925E+00  1.1887E+00  2.4812E+00
  7.7900E-01  1.2938E+00  1.1884E+00  2.4823E+00
  7.8000E-01  1.2952E+00  1.1881E+00  2.4833E+00
  7.8100E-01  1.2966E+00  1.1878E+00  2.4844E+00
  7.8200E-01  1.2980E+00  1.1875E+00  2.4855E+00
  7.8300E-01  1.2994E+00  1.1872E+00  2.4867E+00
  7.8400E-01  1.3009E+00  1.1869E+00  2.4878E+00
  7.8500E-01  1.3023E+00  1.1866E+00  2.4889E+00
  7.8600E-01  1.3038E+00  1.1863E+00  2.4900E+00
  7.8700E-01  1.3048E+00  1.1860E+00  2.4908E+00
  7.8800E-01  1.3058E+00  1.1857E+00  2.4915E+00
  7.8900E-01  1.3069E+00  1.1854E+00  2.4922E+00
  7.9000E-01  1.3079E+00  1.1851E+00  2.4930E+00
  7.9100E-01  1.3090E+00  1.1848E+00  2.4938E+00
  7.9200E-01  1.3100E+00  1.1845E+00  2.4946E+00
  7.9300E-01  1.3111E+00  1.1842E+00  2.4953E+00
  7.9400E-01  1.3122E+00  1.1839E+00  2.4961E+00
  7.9500E-01  1.3133E+00  1.1836E+00  2.4969E+00
  7.9600E-01  1.3145E+00  1.1833E+00  2.4977E+00
  7.9700E-01  1.3156E+00  1.1829E+00  2.4986E+00
  7.9800E-01  1.3168E+00  1.1826E+00  2.4994E+00
  7.9900E-01  1.3176E+00  1.1824E+00  2.5000E+00
