# GGADT v1.2.1
# =-=-=
# Total cross sections as a function of energy
# -----------------------------------
# Parameter values
# -----------------------------------
# a_eff:                               6.48710E-01 micron
# ephot_min:                           6.00000E-01kiloelectron-vo
# ephot_max:                           8.00000E-01kiloelectron-vo
# nephots:                                     200
# Material file:                                   metallic_iron
# geometry:                                        ellipsoid
# angle_mode:                                      random
# ngrain:                                      128
# norientations:                                 1
# grain-axis-z:                        7.25704E-01 micron
# grain-axis-y:                        7.25704E-01 micron
# grain-axis-z:                        5.18360E-01 micron
# grid-width:                          1.45141E+00 micron
# axes-convention:                                 ddscat
# parameter_file_name:                             large_params_random.ini
# -----------------------------------
 # [ephot (kiloelectron-volt)] [Q_sca] [Q_abs] [Q_ext]
  6.0000E-01  1.0607E+00  7.8989E-01  1.8506E+00
  6.0100E-01  1.0600E+00  7.8912E-01  1.8491E+00
  6.0200E-01  1.0593E+00  7.8834E-01  1.8476E+00
  6.0300E-01  1.0587E+00  7.8755E-01  1.8463E+00
  6.0400E-01  1.0583E+00  7.8675E-01  1.8451E+00
  6.0500E-01  1.0581E+00  7.8595E-01  1.8440E+00
  6.0600E-01  1.0580E+00  7.8513E-01  1.8431E+00
  6.0700E-01  1.0580E+00  7.8431E-01  1.8423E+00
  6.0800E-01  1.0582E+00  7.8348E-01  1.8417E+00
  6.0900E-01  1.0586E+00  7.8271E-01  1.8413E+00
  6.1000E-01  1.0591E+00  7.8194E-01  1.8411E+00
  6.1100E-01  1.0599E+00  7.8116E-01  1.8410E+00
  6.1200E-01  1.0608E+00  7.8036E-01  1.8412E+00
  6.1300E-01  1.0620E+00  7.7956E-01  1.8416E+00
  6.1400E-01  1.0634E+00  7.7875E-01  1.8421E+00
  6.1500E-01  1.0650E+00  7.7794E-01  1.8429E+00
  6.1600E-01  1.0668E+00  7.7711E-01  1.8439E+00
  6.1700E-01  1.0689E+00  7.7627E-01  1.8452E+00
  6.1800E-01  1.0712E+00  7.7544E-01  1.8467E+00
  6.1900E-01  1.0738E+00  7.7467E-01  1.8485E+00
  6.2000E-01  1.0767E+00  7.7388E-01  1.8506E+00
  6.2100E-01  1.0799E+00  7.7308E-01  1.8530E+00
  6.2200E-01  1.0834E+00  7.7228E-01  1.8557E+00
  6.2300E-01  1.0871E+00  7.7147E-01  1.8586E+00
  6.2400E-01  1.0912E+00  7.7065E-01  1.8618E+00
  6.2500E-01  1.0955E+00  7.6982E-01  1.8653E+00
  6.2600E-01  1.1002E+00  7.6898E-01  1.8691E+00
  6.2700E-01  1.1051E+00  7.6813E-01  1.8733E+00
  6.2800E-01  1.1105E+00  7.6729E-01  1.8777E+00
  6.2900E-01  1.1163E+00  7.6647E-01  1.8828E+00
  6.3000E-01  1.1226E+00  7.6564E-01  1.8882E+00
  6.3100E-01  1.1291E+00  7.6481E-01  1.8939E+00
  6.3200E-01  1.1360E+00  7.6396E-01  1.9000E+00
  6.3300E-01  1.1433E+00  7.6311E-01  1.9064E+00
  6.3400E-01  1.1509E+00  7.6225E-01  1.9131E+00
  6.3500E-01  1.1588E+00  7.6138E-01  1.9202E+00
  6.3600E-01  1.1671E+00  7.6049E-01  1.9276E+00
  6.3700E-01  1.1757E+00  7.5960E-01  1.9353E+00
  6.3800E-01  1.1847E+00  7.5871E-01  1.9435E+00
  6.3900E-01  1.1948E+00  7.5784E-01  1.9526E+00
  6.4000E-01  1.2052E+00  7.5696E-01  1.9622E+00
  6.4100E-01  1.2160E+00  7.5607E-01  1.9720E+00
  6.4200E-01  1.2271E+00  7.5517E-01  1.9822E+00
  6.4300E-01  1.2385E+00  7.5426E-01  1.9927E+00
  6.4400E-01  1.2501E+00  7.5334E-01  2.0035E+00
  6.4500E-01  1.2621E+00  7.5242E-01  2.0145E+00
  6.4600E-01  1.2743E+00  7.5148E-01  2.0258E+00
  6.4700E-01  1.2867E+00  7.5053E-01  2.0372E+00
  6.4800E-01  1.2993E+00  7.4957E-01  2.0489E+00
  6.4900E-01  1.3134E+00  7.4865E-01  2.0620E+00
  6.5000E-01  1.3279E+00  7.4774E-01  2.0757E+00
  6.5100E-01  1.3426E+00  7.4681E-01  2.0894E+00
  6.5200E-01  1.3573E+00  7.4587E-01  2.1031E+00
  6.5300E-01  1.3720E+00  7.4493E-01  2.1169E+00
  6.5400E-01  1.3866E+00  7.4397E-01  2.1305E+00
  6.5500E-01  1.4010E+00  7.4301E-01  2.1441E+00
  6.5600E-01  1.4153E+00  7.4203E-01  2.1574E+00
  6.5700E-01  1.4294E+00  7.4105E-01  2.1704E+00
  6.5800E-01  1.4431E+00  7.4005E-01  2.1832E+00
  6.5900E-01  1.4572E+00  7.3907E-01  2.1962E+00
  6.6000E-01  1.4722E+00  7.3815E-01  2.2103E+00
  6.6100E-01  1.4863E+00  7.3723E-01  2.2236E+00
  6.6200E-01  1.4995E+00  7.3629E-01  2.2358E+00
  6.6300E-01  1.5115E+00  7.3534E-01  2.2469E+00
  6.6400E-01  1.5224E+00  7.3438E-01  2.2567E+00
  6.6500E-01  1.5318E+00  7.3342E-01  2.2652E+00
  6.6600E-01  1.5398E+00  7.3244E-01  2.2723E+00
  6.6700E-01  1.5462E+00  7.3145E-01  2.2777E+00
  6.6800E-01  1.5509E+00  7.3046E-01  2.2814E+00
  6.6900E-01  1.5538E+00  7.2945E-01  2.2833E+00
  6.7000E-01  1.5540E+00  7.2854E-01  2.2825E+00
  6.7100E-01  1.5501E+00  7.2768E-01  2.2778E+00
  6.7200E-01  1.5424E+00  7.2681E-01  2.2692E+00
  6.7300E-01  1.5306E+00  7.2594E-01  2.2565E+00
  6.7400E-01  1.5146E+00  7.2505E-01  2.2397E+00
  6.7500E-01  1.4944E+00  7.2416E-01  2.2186E+00
  6.7600E-01  1.4700E+00  7.2326E-01  2.1933E+00
  6.7700E-01  1.4414E+00  7.2235E-01  2.1637E+00
  6.7800E-01  1.4086E+00  7.2143E-01  2.1300E+00
  6.7900E-01  1.3717E+00  7.2051E-01  2.0922E+00
  6.8000E-01  1.3310E+00  7.1957E-01  2.0506E+00
  6.8100E-01  1.2616E+00  7.1874E-01  1.9803E+00
  6.8200E-01  1.1785E+00  7.1793E-01  1.8965E+00
  6.8300E-01  1.0889E+00  7.1711E-01  1.8060E+00
  6.8400E-01  9.9451E-01  7.1629E-01  1.7108E+00
  6.8500E-01  8.9744E-01  7.1546E-01  1.6129E+00
  6.8600E-01  7.9991E-01  7.1462E-01  1.5145E+00
  6.8700E-01  7.0428E-01  7.1377E-01  1.4180E+00
  6.8800E-01  6.1293E-01  7.1291E-01  1.3258E+00
  6.8900E-01  5.2825E-01  7.1205E-01  1.2403E+00
  6.9000E-01  4.5251E-01  7.1118E-01  1.1637E+00
  6.9100E-01  3.7537E-01  7.1537E-01  1.0907E+00
  6.9200E-01  3.1811E-01  7.1387E-01  1.0320E+00
  6.9300E-01  2.8279E-01  7.1311E-01  9.9590E-01
  6.9400E-01  3.0233E-01  7.1994E-01  1.0223E+00
  6.9500E-01  3.6353E-01  7.1060E-01  1.0741E+00
  6.9600E-01  5.2541E-01  7.1156E-01  1.2370E+00
  6.9700E-01  7.5685E-01  7.1301E-01  1.4699E+00
  6.9800E-01  1.0570E+00  7.1569E-01  1.7727E+00
  6.9900E-01  1.3690E+00  7.1567E-01  2.0846E+00
  7.0000E-01  1.5402E+00  7.2897E-01  2.2692E+00
  7.0100E-01  1.4959E+00  7.2317E-01  2.2191E+00
  7.0200E-01  1.1642E+00  7.5161E-01  1.9158E+00
  7.0300E-01  1.1113E+00  7.6415E-01  1.8754E+00
  7.0400E-01  1.1025E+00  8.2446E-01  1.9270E+00
  7.0500E-01  9.8865E-01  9.0892E-01  1.8976E+00
  7.0600E-01  9.4951E-01  9.4537E-01  1.8949E+00
  7.0700E-01  9.4491E-01  9.4635E-01  1.8913E+00
  7.0800E-01  9.4351E-01  9.4608E-01  1.8896E+00
  7.0900E-01  9.4292E-01  9.4544E-01  1.8884E+00
  7.1000E-01  9.4306E-01  9.4457E-01  1.8876E+00
  7.1100E-01  9.4311E-01  9.4337E-01  1.8865E+00
  7.1200E-01  9.4009E-01  9.4229E-01  1.8824E+00
  7.1300E-01  9.3624E-01  9.4179E-01  1.8780E+00
  7.1400E-01  9.3343E-01  9.4129E-01  1.8747E+00
  7.1500E-01  9.2807E-01  9.4053E-01  1.8686E+00
  7.1600E-01  9.1764E-01  9.3986E-01  1.8575E+00
  7.1700E-01  9.0240E-01  9.3963E-01  1.8420E+00
  7.1800E-01  9.1726E-01  9.4158E-01  1.8588E+00
  7.1900E-01  9.3566E-01  9.4493E-01  1.8806E+00
  7.2000E-01  9.3921E-01  9.4546E-01  1.8847E+00
  7.2100E-01  9.4176E-01  9.4499E-01  1.8868E+00
  7.2200E-01  9.4372E-01  9.4419E-01  1.8879E+00
  7.2300E-01  9.4517E-01  9.4339E-01  1.8886E+00
  7.2400E-01  9.4616E-01  9.4263E-01  1.8888E+00
  7.2500E-01  9.4611E-01  9.4215E-01  1.8883E+00
  7.2600E-01  9.4611E-01  9.4184E-01  1.8879E+00
  7.2700E-01  9.4631E-01  9.4159E-01  1.8879E+00
  7.2800E-01  9.4667E-01  9.4124E-01  1.8879E+00
  7.2900E-01  9.4650E-01  9.4107E-01  1.8876E+00
  7.3000E-01  9.4656E-01  9.4094E-01  1.8875E+00
  7.3100E-01  9.4664E-01  9.4076E-01  1.8874E+00
  7.3200E-01  9.4666E-01  9.4063E-01  1.8873E+00
  7.3300E-01  9.4666E-01  9.4053E-01  1.8872E+00
  7.3400E-01  9.4648E-01  9.4046E-01  1.8869E+00
  7.3500E-01  9.4687E-01  9.4032E-01  1.8872E+00
  7.3600E-01  9.4672E-01  9.4035E-01  1.8871E+00
  7.3700E-01  9.4695E-01  9.4035E-01  1.8873E+00
  7.3800E-01  9.4768E-01  9.4012E-01  1.8878E+00
  7.3900E-01  9.4815E-01  9.3989E-01  1.8880E+00
  7.4000E-01  9.4839E-01  9.3981E-01  1.8882E+00
  7.4100E-01  9.4838E-01  9.3976E-01  1.8881E+00
  7.4200E-01  9.4843E-01  9.3968E-01  1.8881E+00
  7.4300E-01  9.4856E-01  9.3965E-01  1.8882E+00
  7.4400E-01  9.4864E-01  9.3963E-01  1.8883E+00
  7.4500E-01  9.4905E-01  9.3953E-01  1.8886E+00
  7.4600E-01  9.4917E-01  9.3949E-01  1.8887E+00
  7.4700E-01  9.4930E-01  9.3944E-01  1.8887E+00
  7.4800E-01  9.4943E-01  9.3940E-01  1.8888E+00
  7.4900E-01  9.4957E-01  9.3935E-01  1.8889E+00
  7.5000E-01  9.4976E-01  9.3931E-01  1.8891E+00
  7.5100E-01  9.4996E-01  9.3927E-01  1.8892E+00
  7.5200E-01  9.5015E-01  9.3922E-01  1.8894E+00
  7.5300E-01  9.5035E-01  9.3918E-01  1.8895E+00
  7.5400E-01  9.5055E-01  9.3913E-01  1.8897E+00
  7.5500E-01  9.5075E-01  9.3909E-01  1.8898E+00
  7.5600E-01  9.5095E-01  9.3904E-01  1.8900E+00
  7.5700E-01  9.5116E-01  9.3899E-01  1.8901E+00
  7.5800E-01  9.5136E-01  9.3894E-01  1.8903E+00
  7.5900E-01  9.5157E-01  9.3889E-01  1.8905E+00
  7.6000E-01  9.5178E-01  9.3884E-01  1.8906E+00
  7.6100E-01  9.5199E-01  9.3879E-01  1.8908E+00
  7.6200E-01  9.5218E-01  9.3875E-01  1.8909E+00
  7.6300E-01  9.5238E-01  9.3870E-01  1.8911E+00
  7.6400E-01  9.5258E-01  9.3866E-01  1.8912E+00
  7.6500E-01  9.5278E-01  9.3861E-01  1.8914E+00
  7.6600E-01  9.5298E-01  9.3856E-01  1.8915E+00
  7.6700E-01  9.5318E-01  9.3851E-01  1.8917E+00
  7.6800E-01  9.5339E-01  9.3846E-01  1.8918E+00
  7.6900E-01  9.5359E-01  9.3841E-01  1.8920E+00
  7.7000E-01  9.5380E-01  9.3836E-01  1.8922E+00
  7.7100E-01  9.5401E-01  9.3831E-01  1.8923E+00
  7.7200E-01  9.5422E-01  9.3826E-01  1.8925E+00
  7.7300E-01  9.5443E-01  9.3820E-01  1.8926E+00
  7.7400E-01  9.5462E-01  9.3815E-01  1.8928E+00
  7.7500E-01  9.5480E-01  9.3811E-01  1.8929E+00
  7.7600E-01  9.5498E-01  9.3806E-01  1.8930E+00
  7.7700E-01  9.5517E-01  9.3801E-01  1.8932E+00
  7.7800E-01  9.5535E-01  9.3796E-01  1.8933E+00
  7.7900E-01  9.5554E-01  9.3791E-01  1.8934E+00
  7.8000E-01  9.5572E-01  9.3785E-01  1.8936E+00
  7.8100E-01  9.5591E-01  9.3780E-01  1.8937E+00
  7.8200E-01  9.5610E-01  9.3775E-01  1.8939E+00
  7.8300E-01  9.5629E-01  9.3770E-01  1.8940E+00
  7.8400E-01  9.5649E-01  9.3764E-01  1.8941E+00
  7.8500E-01  9.5668E-01  9.3759E-01  1.8943E+00
  7.8600E-01  9.5687E-01  9.3753E-01  1.8944E+00
  7.8700E-01  9.5702E-01  9.3748E-01  1.8945E+00
  7.8800E-01  9.5717E-01  9.3743E-01  1.8946E+00
  7.8900E-01  9.5732E-01  9.3738E-01  1.8947E+00
  7.9000E-01  9.5747E-01  9.3733E-01  1.8948E+00
  7.9100E-01  9.5763E-01  9.3728E-01  1.8949E+00
  7.9200E-01  9.5778E-01  9.3723E-01  1.8950E+00
  7.9300E-01  9.5794E-01  9.3718E-01  1.8951E+00
  7.9400E-01  9.5810E-01  9.3712E-01  1.8952E+00
  7.9500E-01  9.5826E-01  9.3707E-01  1.8953E+00
  7.9600E-01  9.5842E-01  9.3701E-01  1.8954E+00
  7.9700E-01  9.5858E-01  9.3696E-01  1.8955E+00
  7.9800E-01  9.5874E-01  9.3690E-01  1.8956E+00
  7.9900E-01  9.5886E-01  9.3686E-01  1.8957E+00
