# GGADT v1.2.1
# =-=-=
# Total cross sections as a function of energy
# -----------------------------------
# Parameter values
# -----------------------------------
# a_eff:                               7.44516E-01 micron
# ephot_min:                           6.00000E-01kiloelectron-vo
# ephot_max:                           8.00000E-01kiloelectron-vo
# nephots:                                     200
# Material file:                                   metallic_iron
# geometry:                                        ellipsoid
# angle_mode:                                      random
# ngrain:                                      128
# norientations:                                 1
# grain-axis-z:                        8.32882E-01 micron
# grain-axis-y:                        8.32882E-01 micron
# grain-axis-z:                        5.94916E-01 micron
# grid-width:                          1.66576E+00 micron
# axes-convention:                                 ddscat
# parameter_file_name:                             large_params_random.ini
# -----------------------------------
 # [ephot (kiloelectron-volt)] [Q_sca] [Q_abs] [Q_ext]
  6.0000E-01  1.0865E+00  8.0408E-01  1.8906E+00
  6.0100E-01  1.0848E+00  8.0344E-01  1.8882E+00
  6.0200E-01  1.0830E+00  8.0280E-01  1.8858E+00
  6.0300E-01  1.0812E+00  8.0214E-01  1.8833E+00
  6.0400E-01  1.0793E+00  8.0148E-01  1.8808E+00
  6.0500E-01  1.0773E+00  8.0082E-01  1.8781E+00
  6.0600E-01  1.0753E+00  8.0014E-01  1.8754E+00
  6.0700E-01  1.0732E+00  7.9946E-01  1.8726E+00
  6.0800E-01  1.0710E+00  7.9877E-01  1.8698E+00
  6.0900E-01  1.0688E+00  7.9813E-01  1.8669E+00
  6.1000E-01  1.0664E+00  7.9749E-01  1.8639E+00
  6.1100E-01  1.0641E+00  7.9684E-01  1.8609E+00
  6.1200E-01  1.0617E+00  7.9618E-01  1.8579E+00
  6.1300E-01  1.0594E+00  7.9551E-01  1.8549E+00
  6.1400E-01  1.0570E+00  7.9484E-01  1.8518E+00
  6.1500E-01  1.0546E+00  7.9415E-01  1.8488E+00
  6.1600E-01  1.0523E+00  7.9346E-01  1.8457E+00
  6.1700E-01  1.0500E+00  7.9276E-01  1.8427E+00
  6.1800E-01  1.0476E+00  7.9207E-01  1.8397E+00
  6.1900E-01  1.0453E+00  7.9142E-01  1.8367E+00
  6.2000E-01  1.0430E+00  7.9076E-01  1.8337E+00
  6.2100E-01  1.0408E+00  7.9009E-01  1.8309E+00
  6.2200E-01  1.0387E+00  7.8942E-01  1.8281E+00
  6.2300E-01  1.0366E+00  7.8874E-01  1.8254E+00
  6.2400E-01  1.0347E+00  7.8805E-01  1.8228E+00
  6.2500E-01  1.0330E+00  7.8735E-01  1.8203E+00
  6.2600E-01  1.0314E+00  7.8664E-01  1.8180E+00
  6.2700E-01  1.0299E+00  7.8593E-01  1.8158E+00
  6.2800E-01  1.0286E+00  7.8522E-01  1.8138E+00
  6.2900E-01  1.0275E+00  7.8453E-01  1.8120E+00
  6.3000E-01  1.0265E+00  7.8383E-01  1.8104E+00
  6.3100E-01  1.0258E+00  7.8312E-01  1.8090E+00
  6.3200E-01  1.0254E+00  7.8241E-01  1.8078E+00
  6.3300E-01  1.0253E+00  7.8169E-01  1.8070E+00
  6.3400E-01  1.0255E+00  7.8096E-01  1.8064E+00
  6.3500E-01  1.0260E+00  7.8022E-01  1.8062E+00
  6.3600E-01  1.0268E+00  7.7947E-01  1.8063E+00
  6.3700E-01  1.0280E+00  7.7872E-01  1.8067E+00
  6.3800E-01  1.0295E+00  7.7796E-01  1.8075E+00
  6.3900E-01  1.0316E+00  7.7722E-01  1.8089E+00
  6.4000E-01  1.0342E+00  7.7647E-01  1.8107E+00
  6.4100E-01  1.0373E+00  7.7571E-01  1.8130E+00
  6.4200E-01  1.0408E+00  7.7495E-01  1.8158E+00
  6.4300E-01  1.0449E+00  7.7417E-01  1.8190E+00
  6.4400E-01  1.0494E+00  7.7339E-01  1.8228E+00
  6.4500E-01  1.0545E+00  7.7260E-01  1.8271E+00
  6.4600E-01  1.0602E+00  7.7180E-01  1.8320E+00
  6.4700E-01  1.0664E+00  7.7099E-01  1.8374E+00
  6.4800E-01  1.0731E+00  7.7017E-01  1.8433E+00
  6.4900E-01  1.0811E+00  7.6938E-01  1.8505E+00
  6.5000E-01  1.0901E+00  7.6860E-01  1.8587E+00
  6.5100E-01  1.0997E+00  7.6780E-01  1.8675E+00
  6.5200E-01  1.1100E+00  7.6700E-01  1.8770E+00
  6.5300E-01  1.1209E+00  7.6619E-01  1.8870E+00
  6.5400E-01  1.1324E+00  7.6536E-01  1.8977E+00
  6.5500E-01  1.1444E+00  7.6453E-01  1.9090E+00
  6.5600E-01  1.1570E+00  7.6369E-01  1.9207E+00
  6.5700E-01  1.1702E+00  7.6285E-01  1.9330E+00
  6.5800E-01  1.1837E+00  7.6199E-01  1.9457E+00
  6.5900E-01  1.1985E+00  7.6114E-01  1.9596E+00
  6.6000E-01  1.2156E+00  7.6035E-01  1.9759E+00
  6.6100E-01  1.2330E+00  7.5955E-01  1.9926E+00
  6.6200E-01  1.2506E+00  7.5873E-01  2.0094E+00
  6.6300E-01  1.2683E+00  7.5791E-01  2.0262E+00
  6.6400E-01  1.2858E+00  7.5708E-01  2.0429E+00
  6.6500E-01  1.3030E+00  7.5625E-01  2.0592E+00
  6.6600E-01  1.3198E+00  7.5540E-01  2.0752E+00
  6.6700E-01  1.3359E+00  7.5454E-01  2.0905E+00
  6.6800E-01  1.3513E+00  7.5368E-01  2.1050E+00
  6.6900E-01  1.3657E+00  7.5280E-01  2.1185E+00
  6.7000E-01  1.3811E+00  7.5201E-01  2.1331E+00
  6.7100E-01  1.3953E+00  7.5126E-01  2.1466E+00
  6.7200E-01  1.4065E+00  7.5051E-01  2.1570E+00
  6.7300E-01  1.4143E+00  7.4974E-01  2.1640E+00
  6.7400E-01  1.4182E+00  7.4897E-01  2.1672E+00
  6.7500E-01  1.4180E+00  7.4819E-01  2.1662E+00
  6.7600E-01  1.4134E+00  7.4741E-01  2.1608E+00
  6.7700E-01  1.4042E+00  7.4661E-01  2.1508E+00
  6.7800E-01  1.3901E+00  7.4581E-01  2.1359E+00
  6.7900E-01  1.3711E+00  7.4500E-01  2.1161E+00
  6.8000E-01  1.3470E+00  7.4418E-01  2.0912E+00
  6.8100E-01  1.3001E+00  7.4345E-01  2.0436E+00
  6.8200E-01  1.2373E+00  7.4274E-01  1.9801E+00
  6.8300E-01  1.1634E+00  7.4202E-01  1.9054E+00
  6.8400E-01  1.0799E+00  7.4129E-01  1.8212E+00
  6.8500E-01  9.8923E-01  7.4056E-01  1.7298E+00
  6.8600E-01  8.9387E-01  7.3982E-01  1.6337E+00
  6.8700E-01  7.9675E-01  7.3908E-01  1.5358E+00
  6.8800E-01  7.0103E-01  7.3832E-01  1.4394E+00
  6.8900E-01  6.0996E-01  7.3756E-01  1.3475E+00
  6.9000E-01  5.2674E-01  7.3680E-01  1.2635E+00
  6.9100E-01  4.3980E-01  7.4049E-01  1.1803E+00
  6.9200E-01  3.7490E-01  7.3917E-01  1.1141E+00
  6.9300E-01  3.3444E-01  7.3850E-01  1.0729E+00
  6.9400E-01  3.5629E-01  7.4449E-01  1.1008E+00
  6.9500E-01  4.2695E-01  7.3628E-01  1.1632E+00
  6.9600E-01  6.0695E-01  7.3713E-01  1.3441E+00
  6.9700E-01  8.5090E-01  7.3841E-01  1.5893E+00
  6.9800E-01  1.1363E+00  7.4077E-01  1.8771E+00
  6.9900E-01  1.3744E+00  7.4075E-01  2.1151E+00
  7.0000E-01  1.3995E+00  7.5239E-01  2.1519E+00
  7.0100E-01  1.2239E+00  7.4733E-01  1.9712E+00
  7.0200E-01  1.0289E+00  7.7191E-01  1.8008E+00
  7.0300E-01  1.1470E+00  7.8257E-01  1.9296E+00
  7.0400E-01  1.0024E+00  8.3212E-01  1.8345E+00
  7.0500E-01  9.5808E-01  8.9596E-01  1.8540E+00
  7.0600E-01  9.2381E-01  9.2138E-01  1.8452E+00
  7.0700E-01  9.2106E-01  9.2202E-01  1.8431E+00
  7.0800E-01  9.2025E-01  9.2183E-01  1.8421E+00
  7.0900E-01  9.2001E-01  9.2142E-01  1.8414E+00
  7.1000E-01  9.2023E-01  9.2088E-01  1.8411E+00
  7.1100E-01  9.2033E-01  9.2010E-01  1.8404E+00
  7.1200E-01  9.1819E-01  9.1938E-01  1.8376E+00
  7.1300E-01  9.1546E-01  9.1905E-01  1.8345E+00
  7.1400E-01  9.1346E-01  9.1871E-01  1.8322E+00
  7.1500E-01  9.0969E-01  9.1819E-01  1.8279E+00
  7.1600E-01  9.0237E-01  9.1774E-01  1.8201E+00
  7.1700E-01  8.9157E-01  9.1758E-01  1.8092E+00
  7.1800E-01  9.0207E-01  9.1891E-01  1.8210E+00
  7.1900E-01  9.1499E-01  9.2110E-01  1.8361E+00
  7.2000E-01  9.1743E-01  9.2144E-01  1.8389E+00
  7.2100E-01  9.1927E-01  9.2114E-01  1.8404E+00
  7.2200E-01  9.2072E-01  9.2064E-01  1.8414E+00
  7.2300E-01  9.2179E-01  9.2012E-01  1.8419E+00
  7.2400E-01  9.2250E-01  9.1961E-01  1.8421E+00
  7.2500E-01  9.2247E-01  9.1929E-01  1.8418E+00
  7.2600E-01  9.2247E-01  9.1908E-01  1.8416E+00
  7.2700E-01  9.2261E-01  9.1891E-01  1.8415E+00
  7.2800E-01  9.2287E-01  9.1868E-01  1.8416E+00
  7.2900E-01  9.2274E-01  9.1856E-01  1.8413E+00
  7.3000E-01  9.2278E-01  9.1848E-01  1.8413E+00
  7.3100E-01  9.2284E-01  9.1835E-01  1.8412E+00
  7.3200E-01  9.2285E-01  9.1826E-01  1.8411E+00
  7.3300E-01  9.2284E-01  9.1820E-01  1.8410E+00
  7.3400E-01  9.2271E-01  9.1815E-01  1.8409E+00
  7.3500E-01  9.2299E-01  9.1805E-01  1.8410E+00
  7.3600E-01  9.2288E-01  9.1807E-01  1.8409E+00
  7.3700E-01  9.2304E-01  9.1807E-01  1.8411E+00
  7.3800E-01  9.2356E-01  9.1791E-01  1.8415E+00
  7.3900E-01  9.2389E-01  9.1776E-01  1.8416E+00
  7.4000E-01  9.2407E-01  9.1770E-01  1.8418E+00
  7.4100E-01  9.2405E-01  9.1767E-01  1.8417E+00
  7.4200E-01  9.2409E-01  9.1762E-01  1.8417E+00
  7.4300E-01  9.2418E-01  9.1759E-01  1.8418E+00
  7.4400E-01  9.2423E-01  9.1758E-01  1.8418E+00
  7.4500E-01  9.2452E-01  9.1751E-01  1.8420E+00
  7.4600E-01  9.2461E-01  9.1748E-01  1.8421E+00
  7.4700E-01  9.2470E-01  9.1745E-01  1.8422E+00
  7.4800E-01  9.2480E-01  9.1742E-01  1.8422E+00
  7.4900E-01  9.2489E-01  9.1739E-01  1.8423E+00
  7.5000E-01  9.2503E-01  9.1736E-01  1.8424E+00
  7.5100E-01  9.2517E-01  9.1733E-01  1.8425E+00
  7.5200E-01  9.2531E-01  9.1730E-01  1.8426E+00
  7.5300E-01  9.2545E-01  9.1727E-01  1.8427E+00
  7.5400E-01  9.2559E-01  9.1724E-01  1.8428E+00
  7.5500E-01  9.2573E-01  9.1721E-01  1.8429E+00
  7.5600E-01  9.2588E-01  9.1717E-01  1.8431E+00
  7.5700E-01  9.2603E-01  9.1714E-01  1.8432E+00
  7.5800E-01  9.2617E-01  9.1711E-01  1.8433E+00
  7.5900E-01  9.2632E-01  9.1707E-01  1.8434E+00
  7.6000E-01  9.2647E-01  9.1704E-01  1.8435E+00
  7.6100E-01  9.2662E-01  9.1701E-01  1.8436E+00
  7.6200E-01  9.2676E-01  9.1697E-01  1.8437E+00
  7.6300E-01  9.2690E-01  9.1694E-01  1.8438E+00
  7.6400E-01  9.2705E-01  9.1691E-01  1.8440E+00
  7.6500E-01  9.2719E-01  9.1688E-01  1.8441E+00
  7.6600E-01  9.2734E-01  9.1684E-01  1.8442E+00
  7.6700E-01  9.2748E-01  9.1681E-01  1.8443E+00
  7.6800E-01  9.2763E-01  9.1678E-01  1.8444E+00
  7.6900E-01  9.2778E-01  9.1674E-01  1.8445E+00
  7.7000E-01  9.2793E-01  9.1671E-01  1.8446E+00
  7.7100E-01  9.2808E-01  9.1667E-01  1.8447E+00
  7.7200E-01  9.2823E-01  9.1664E-01  1.8449E+00
  7.7300E-01  9.2838E-01  9.1660E-01  1.8450E+00
  7.7400E-01  9.2852E-01  9.1656E-01  1.8451E+00
  7.7500E-01  9.2865E-01  9.1653E-01  1.8452E+00
  7.7600E-01  9.2878E-01  9.1650E-01  1.8453E+00
  7.7700E-01  9.2891E-01  9.1646E-01  1.8454E+00
  7.7800E-01  9.2905E-01  9.1643E-01  1.8455E+00
  7.7900E-01  9.2918E-01  9.1639E-01  1.8456E+00
  7.8000E-01  9.2932E-01  9.1636E-01  1.8457E+00
  7.8100E-01  9.2945E-01  9.1632E-01  1.8458E+00
  7.8200E-01  9.2959E-01  9.1628E-01  1.8459E+00
  7.8300E-01  9.2973E-01  9.1625E-01  1.8460E+00
  7.8400E-01  9.2987E-01  9.1621E-01  1.8461E+00
  7.8500E-01  9.3001E-01  9.1617E-01  1.8462E+00
  7.8600E-01  9.3015E-01  9.1613E-01  1.8463E+00
  7.8700E-01  9.3025E-01  9.1610E-01  1.8464E+00
  7.8800E-01  9.3036E-01  9.1607E-01  1.8464E+00
  7.8900E-01  9.3047E-01  9.1603E-01  1.8465E+00
  7.9000E-01  9.3058E-01  9.1600E-01  1.8466E+00
  7.9100E-01  9.3069E-01  9.1596E-01  1.8467E+00
  7.9200E-01  9.3081E-01  9.1592E-01  1.8467E+00
  7.9300E-01  9.3092E-01  9.1589E-01  1.8468E+00
  7.9400E-01  9.3104E-01  9.1585E-01  1.8469E+00
  7.9500E-01  9.3115E-01  9.1581E-01  1.8470E+00
  7.9600E-01  9.3127E-01  9.1578E-01  1.8470E+00
  7.9700E-01  9.3139E-01  9.1574E-01  1.8471E+00
  7.9800E-01  9.3151E-01  9.1570E-01  1.8472E+00
  7.9900E-01  9.3159E-01  9.1567E-01  1.8473E+00
