# GGADT v1.2.1
# =-=-=
# Total cross sections as a function of energy
# -----------------------------------
# Parameter values
# -----------------------------------
# a_eff:                               2.33548E-01 micron
# ephot_min:                           6.00000E-01kiloelectron-vo
# ephot_max:                           8.00000E-01kiloelectron-vo
# nephots:                                     200
# Material file:                                   metallic_iron
# geometry:                                        ellipsoid
# angle_mode:                                      random
# ngrain:                                      128
# norientations:                                 1
# grain-axis-z:                        2.33548E-01 micron
# grain-axis-y:                        2.33548E-01 micron
# grain-axis-z:                        2.33548E-01 micron
# grid-width:                          4.67097E-01 micron
# axes-convention:                                 ddscat
# parameter_file_name:                             small_params.ini
# -----------------------------------
 # [ephot (kiloelectron-volt)] [Q_sca] [Q_abs] [Q_ext]
  6.0000E-01  1.7665E+00  4.9517E-01  2.2617E+00
  6.0100E-01  1.7591E+00  4.9408E-01  2.2532E+00
  6.0200E-01  1.7516E+00  4.9299E-01  2.2446E+00
  6.0300E-01  1.7440E+00  4.9189E-01  2.2359E+00
  6.0400E-01  1.7363E+00  4.9078E-01  2.2270E+00
  6.0500E-01  1.7284E+00  4.8966E-01  2.2181E+00
  6.0600E-01  1.7204E+00  4.8853E-01  2.2090E+00
  6.0700E-01  1.7124E+00  4.8739E-01  2.1997E+00
  6.0800E-01  1.7041E+00  4.8626E-01  2.1904E+00
  6.0900E-01  1.6955E+00  4.8521E-01  2.1807E+00
  6.1000E-01  1.6868E+00  4.8415E-01  2.1709E+00
  6.1100E-01  1.6779E+00  4.8309E-01  2.1610E+00
  6.1200E-01  1.6690E+00  4.8202E-01  2.1510E+00
  6.1300E-01  1.6599E+00  4.8095E-01  2.1408E+00
  6.1400E-01  1.6507E+00  4.7986E-01  2.1305E+00
  6.1500E-01  1.6414E+00  4.7877E-01  2.1201E+00
  6.1600E-01  1.6319E+00  4.7767E-01  2.1096E+00
  6.1700E-01  1.6223E+00  4.7656E-01  2.0989E+00
  6.1800E-01  1.6125E+00  4.7546E-01  2.0880E+00
  6.1900E-01  1.6022E+00  4.7444E-01  2.0766E+00
  6.2000E-01  1.5917E+00  4.7341E-01  2.0651E+00
  6.2100E-01  1.5812E+00  4.7237E-01  2.0535E+00
  6.2200E-01  1.5705E+00  4.7132E-01  2.0418E+00
  6.2300E-01  1.5596E+00  4.7026E-01  2.0299E+00
  6.2400E-01  1.5487E+00  4.6920E-01  2.0179E+00
  6.2500E-01  1.5376E+00  4.6813E-01  2.0058E+00
  6.2600E-01  1.5264E+00  4.6706E-01  1.9935E+00
  6.2700E-01  1.5151E+00  4.6597E-01  1.9811E+00
  6.2800E-01  1.5034E+00  4.6489E-01  1.9683E+00
  6.2900E-01  1.4910E+00  4.6385E-01  1.9549E+00
  6.3000E-01  1.4785E+00  4.6281E-01  1.9413E+00
  6.3100E-01  1.4658E+00  4.6176E-01  1.9276E+00
  6.3200E-01  1.4531E+00  4.6069E-01  1.9137E+00
  6.3300E-01  1.4401E+00  4.5963E-01  1.8998E+00
  6.3400E-01  1.4271E+00  4.5855E-01  1.8856E+00
  6.3500E-01  1.4139E+00  4.5747E-01  1.8714E+00
  6.3600E-01  1.4006E+00  4.5638E-01  1.8570E+00
  6.3700E-01  1.3872E+00  4.5528E-01  1.8425E+00
  6.3800E-01  1.3735E+00  4.5418E-01  1.8277E+00
  6.3900E-01  1.3584E+00  4.5311E-01  1.8115E+00
  6.4000E-01  1.3431E+00  4.5204E-01  1.7951E+00
  6.4100E-01  1.3277E+00  4.5095E-01  1.7786E+00
  6.4200E-01  1.3121E+00  4.4987E-01  1.7620E+00
  6.4300E-01  1.2965E+00  4.4877E-01  1.7453E+00
  6.4400E-01  1.2807E+00  4.4766E-01  1.7284E+00
  6.4500E-01  1.2648E+00  4.4655E-01  1.7114E+00
  6.4600E-01  1.2488E+00  4.4543E-01  1.6942E+00
  6.4700E-01  1.2327E+00  4.4431E-01  1.6770E+00
  6.4800E-01  1.2164E+00  4.4317E-01  1.6596E+00
  6.4900E-01  1.1980E+00  4.4209E-01  1.6401E+00
  6.5000E-01  1.1789E+00  4.4101E-01  1.6200E+00
  6.5100E-01  1.1598E+00  4.3992E-01  1.5997E+00
  6.5200E-01  1.1405E+00  4.3883E-01  1.5793E+00
  6.5300E-01  1.1211E+00  4.3773E-01  1.5588E+00
  6.5400E-01  1.1016E+00  4.3662E-01  1.5382E+00
  6.5500E-01  1.0820E+00  4.3550E-01  1.5175E+00
  6.5600E-01  1.0623E+00  4.3438E-01  1.4967E+00
  6.5700E-01  1.0426E+00  4.3325E-01  1.4758E+00
  6.5800E-01  1.0228E+00  4.3211E-01  1.4549E+00
  6.5900E-01  1.0016E+00  4.3100E-01  1.4326E+00
  6.6000E-01  9.7701E-01  4.2996E-01  1.4070E+00
  6.6100E-01  9.5240E-01  4.2891E-01  1.3813E+00
  6.6200E-01  9.2778E-01  4.2785E-01  1.3556E+00
  6.6300E-01  9.0316E-01  4.2679E-01  1.3299E+00
  6.6400E-01  8.7855E-01  4.2571E-01  1.3043E+00
  6.6500E-01  8.5398E-01  4.2464E-01  1.2786E+00
  6.6600E-01  8.2946E-01  4.2355E-01  1.2530E+00
  6.6700E-01  8.0499E-01  4.2246E-01  1.2275E+00
  6.6800E-01  7.8061E-01  4.2136E-01  1.2020E+00
  6.6900E-01  7.5631E-01  4.2025E-01  1.1766E+00
  6.7000E-01  7.2656E-01  4.1926E-01  1.1458E+00
  6.7100E-01  6.9388E-01  4.1832E-01  1.1122E+00
  6.7200E-01  6.6155E-01  4.1737E-01  1.0789E+00
  6.7300E-01  6.2962E-01  4.1642E-01  1.0460E+00
  6.7400E-01  5.9813E-01  4.1547E-01  1.0136E+00
  6.7500E-01  5.6711E-01  4.1450E-01  9.8161E-01
  6.7600E-01  5.3660E-01  4.1353E-01  9.5014E-01
  6.7700E-01  5.0666E-01  4.1256E-01  9.1922E-01
  6.7800E-01  4.7731E-01  4.1158E-01  8.8889E-01
  6.7900E-01  4.4860E-01  4.1059E-01  8.5919E-01
  6.8000E-01  4.2057E-01  4.0960E-01  8.3017E-01
  6.8100E-01  3.7962E-01  4.0872E-01  7.8834E-01
  6.8200E-01  3.3755E-01  4.0786E-01  7.4541E-01
  6.8300E-01  2.9787E-01  4.0700E-01  7.0487E-01
  6.8400E-01  2.6073E-01  4.0613E-01  6.6686E-01
  6.8500E-01  2.2628E-01  4.0526E-01  6.3154E-01
  6.8600E-01  1.9466E-01  4.0438E-01  5.9905E-01
  6.8700E-01  1.6601E-01  4.0350E-01  5.6951E-01
  6.8800E-01  1.4045E-01  4.0261E-01  5.4306E-01
  6.8900E-01  1.1810E-01  4.0172E-01  5.1982E-01
  6.9000E-01  9.9059E-02  4.0082E-01  4.9988E-01
  6.9100E-01  8.1085E-02  4.0517E-01  4.8626E-01
  6.9200E-01  6.7638E-02  4.0361E-01  4.7125E-01
  6.9300E-01  5.9575E-02  4.0282E-01  4.6239E-01
  6.9400E-01  6.4584E-02  4.0998E-01  4.7457E-01
  6.9500E-01  7.7786E-02  4.0022E-01  4.7801E-01
  6.9600E-01  1.1729E-01  4.0121E-01  5.1850E-01
  6.9700E-01  1.8114E-01  4.0272E-01  5.8386E-01
  6.9800E-01  2.8420E-01  4.0551E-01  6.8971E-01
  6.9900E-01  4.4018E-01  4.0549E-01  8.4566E-01
  7.0000E-01  6.7021E-01  4.1973E-01  1.0899E+00
  7.0100E-01  9.9995E-01  4.1344E-01  1.4134E+00
  7.0200E-01  1.4302E+00  4.4559E-01  1.8758E+00
  7.0300E-01  1.9572E+00  4.6094E-01  2.4181E+00
  7.0400E-01  2.1434E+00  5.4879E-01  2.6922E+00
  7.0500E-01  1.2516E+00  7.6248E-01  2.0141E+00
  7.0600E-01  1.0214E+00  9.8809E-01  2.0095E+00
  7.0700E-01  9.8424E-01  9.9623E-01  1.9805E+00
  7.0800E-01  9.7305E-01  9.9392E-01  1.9670E+00
  7.0900E-01  9.6894E-01  9.8867E-01  1.9576E+00
  7.1000E-01  9.6918E-01  9.8146E-01  1.9506E+00
  7.1100E-01  9.6111E-01  9.7133E-01  1.9324E+00
  7.1200E-01  9.1760E-01  9.6221E-01  1.8798E+00
  7.1300E-01  8.7812E-01  9.5795E-01  1.8361E+00
  7.1400E-01  8.5046E-01  9.5380E-01  1.8043E+00
  7.1500E-01  8.0631E-01  9.4739E-01  1.7537E+00
  7.1600E-01  7.4733E-01  9.4189E-01  1.6892E+00
  7.1700E-01  6.8935E-01  9.3998E-01  1.6293E+00
  7.1800E-01  7.6632E-01  9.5622E-01  1.7225E+00
  7.1900E-01  9.0584E-01  9.8443E-01  1.8903E+00
  7.2000E-01  9.3628E-01  9.8884E-01  1.9251E+00
  7.2100E-01  9.5798E-01  9.8498E-01  1.9430E+00
  7.2200E-01  9.7417E-01  9.7831E-01  1.9525E+00
  7.2300E-01  9.8377E-01  9.7158E-01  1.9553E+00
  7.2400E-01  9.8579E-01  9.6508E-01  1.9509E+00
  7.2500E-01  9.7769E-01  9.6106E-01  1.9387E+00
  7.2600E-01  9.7215E-01  9.5838E-01  1.9305E+00
  7.2700E-01  9.6980E-01  9.5629E-01  1.9261E+00
  7.2800E-01  9.6722E-01  9.5338E-01  1.9206E+00
  7.2900E-01  9.6148E-01  9.5190E-01  1.9134E+00
  7.3000E-01  9.5954E-01  9.5089E-01  1.9104E+00
  7.3100E-01  9.5649E-01  9.4934E-01  1.9058E+00
  7.3200E-01  9.5389E-01  9.4827E-01  1.9022E+00
  7.3300E-01  9.5167E-01  9.4746E-01  1.8991E+00
  7.3400E-01  9.4792E-01  9.4683E-01  1.8947E+00
  7.3500E-01  9.4927E-01  9.4572E-01  1.8950E+00
  7.3600E-01  9.4806E-01  9.4590E-01  1.8940E+00
  7.3700E-01  9.5070E-01  9.4590E-01  1.8966E+00
  7.3800E-01  9.5385E-01  9.4401E-01  1.8979E+00
  7.3900E-01  9.5390E-01  9.4216E-01  1.8961E+00
  7.4000E-01  9.5477E-01  9.4146E-01  1.8962E+00
  7.4100E-01  9.5339E-01  9.4106E-01  1.8945E+00
  7.4200E-01  9.5210E-01  9.4046E-01  1.8926E+00
  7.4300E-01  9.5271E-01  9.4015E-01  1.8929E+00
  7.4400E-01  9.5330E-01  9.4005E-01  1.8933E+00
  7.4500E-01  9.5572E-01  9.3923E-01  1.8949E+00
  7.4600E-01  9.5612E-01  9.3886E-01  1.8950E+00
  7.4700E-01  9.5652E-01  9.3850E-01  1.8950E+00
  7.4800E-01  9.5693E-01  9.3813E-01  1.8951E+00
  7.4900E-01  9.5741E-01  9.3775E-01  1.8952E+00
  7.5000E-01  9.5866E-01  9.3740E-01  1.8961E+00
  7.5100E-01  9.5993E-01  9.3704E-01  1.8970E+00
  7.5200E-01  9.6121E-01  9.3668E-01  1.8979E+00
  7.5300E-01  9.6251E-01  9.3632E-01  1.8988E+00
  7.5400E-01  9.6382E-01  9.3595E-01  1.8998E+00
  7.5500E-01  9.6515E-01  9.3558E-01  1.9007E+00
  7.5600E-01  9.6650E-01  9.3520E-01  1.9017E+00
  7.5700E-01  9.6787E-01  9.3481E-01  1.9027E+00
  7.5800E-01  9.6925E-01  9.3443E-01  1.9037E+00
  7.5900E-01  9.7065E-01  9.3403E-01  1.9047E+00
  7.6000E-01  9.7207E-01  9.3364E-01  1.9057E+00
  7.6100E-01  9.7351E-01  9.3323E-01  1.9067E+00
  7.6200E-01  9.7487E-01  9.3286E-01  1.9077E+00
  7.6300E-01  9.7625E-01  9.3249E-01  1.9087E+00
  7.6400E-01  9.7765E-01  9.3211E-01  1.9098E+00
  7.6500E-01  9.7906E-01  9.3173E-01  1.9108E+00
  7.6600E-01  9.8049E-01  9.3135E-01  1.9118E+00
  7.6700E-01  9.8193E-01  9.3096E-01  1.9129E+00
  7.6800E-01  9.8339E-01  9.3056E-01  1.9140E+00
  7.6900E-01  9.8487E-01  9.3016E-01  1.9150E+00
  7.7000E-01  9.8637E-01  9.2976E-01  1.9161E+00
  7.7100E-01  9.8788E-01  9.2935E-01  1.9172E+00
  7.7200E-01  9.8941E-01  9.2893E-01  1.9183E+00
  7.7300E-01  9.9096E-01  9.2852E-01  1.9195E+00
  7.7400E-01  9.9230E-01  9.2812E-01  1.9204E+00
  7.7500E-01  9.9353E-01  9.2774E-01  1.9213E+00
  7.7600E-01  9.9476E-01  9.2735E-01  1.9221E+00
  7.7700E-01  9.9602E-01  9.2695E-01  1.9230E+00
  7.7800E-01  9.9728E-01  9.2656E-01  1.9238E+00
  7.7900E-01  9.9856E-01  9.2616E-01  1.9247E+00
  7.8000E-01  9.9986E-01  9.2575E-01  1.9256E+00
  7.8100E-01  1.0012E+00  9.2534E-01  1.9265E+00
  7.8200E-01  1.0025E+00  9.2492E-01  1.9274E+00
  7.8300E-01  1.0038E+00  9.2450E-01  1.9283E+00
  7.8400E-01  1.0052E+00  9.2408E-01  1.9293E+00
  7.8500E-01  1.0065E+00  9.2365E-01  1.9302E+00
  7.8600E-01  1.0078E+00  9.2322E-01  1.9311E+00
  7.8700E-01  1.0086E+00  9.2284E-01  1.9315E+00
  7.8800E-01  1.0094E+00  9.2245E-01  1.9319E+00
  7.8900E-01  1.0103E+00  9.2206E-01  1.9323E+00
  7.9000E-01  1.0111E+00  9.2166E-01  1.9327E+00
  7.9100E-01  1.0119E+00  9.2126E-01  1.9332E+00
  7.9200E-01  1.0127E+00  9.2086E-01  1.9336E+00
  7.9300E-01  1.0136E+00  9.2045E-01  1.9340E+00
  7.9400E-01  1.0144E+00  9.2004E-01  1.9345E+00
  7.9500E-01  1.0153E+00  9.1962E-01  1.9349E+00
  7.9600E-01  1.0162E+00  9.1920E-01  1.9354E+00
  7.9700E-01  1.0171E+00  9.1877E-01  1.9358E+00
  7.9800E-01  1.0179E+00  9.1834E-01  1.9363E+00
  7.9900E-01  1.0186E+00  9.1804E-01  1.9366E+00
