# GGADT v1.2.1
# =-=-=
# Total cross sections as a function of energy
# -----------------------------------
# Parameter values
# -----------------------------------
# a_eff:                               1.00000E+00 micron
# ephot_min:                           6.00000E-01kiloelectron-vo
# ephot_max:                           8.00000E-01kiloelectron-vo
# nephots:                                     200
# Material file:                                   iron_sulfate_anhydrous
# geometry:                                        ellipsoid
# angle_mode:                                      random
# ngrain:                                      128
# norientations:                                 1
# grain-axis-z:                        1.11869E+00 micron
# grain-axis-y:                        1.11869E+00 micron
# grain-axis-z:                        7.99064E-01 micron
# grid-width:                          2.23738E+00 micron
# axes-convention:                                 ddscat
# parameter_file_name:                             params_oblate_rand.ini
# -----------------------------------
 # [ephot (kiloelectron-volt)] [Q_sca] [Q_abs] [Q_ext]
  6.0000E-01  9.4475E-01  8.7043E-01  1.8152E+00
  6.0100E-01  9.4504E-01  8.7023E-01  1.8153E+00
  6.0200E-01  9.4533E-01  8.7003E-01  1.8154E+00
  6.0300E-01  9.4562E-01  8.6982E-01  1.8154E+00
  6.0400E-01  9.4592E-01  8.6961E-01  1.8155E+00
  6.0500E-01  9.4622E-01  8.6940E-01  1.8156E+00
  6.0600E-01  9.4652E-01  8.6918E-01  1.8157E+00
  6.0700E-01  9.4682E-01  8.6897E-01  1.8158E+00
  6.0800E-01  9.4713E-01  8.6874E-01  1.8159E+00
  6.0900E-01  9.4740E-01  8.6854E-01  1.8159E+00
  6.1000E-01  9.4768E-01  8.6833E-01  1.8160E+00
  6.1100E-01  9.4795E-01  8.6812E-01  1.8161E+00
  6.1200E-01  9.4823E-01  8.6790E-01  1.8161E+00
  6.1300E-01  9.4851E-01  8.6768E-01  1.8162E+00
  6.1400E-01  9.4880E-01  8.6746E-01  1.8163E+00
  6.1500E-01  9.4908E-01  8.6724E-01  1.8163E+00
  6.1600E-01  9.4937E-01  8.6701E-01  1.8164E+00
  6.1700E-01  9.4966E-01  8.6677E-01  1.8164E+00
  6.1800E-01  9.4995E-01  8.6654E-01  1.8165E+00
  6.1900E-01  9.5021E-01  8.6633E-01  1.8165E+00
  6.2000E-01  9.5046E-01  8.6610E-01  1.8166E+00
  6.2100E-01  9.5072E-01  8.6588E-01  1.8166E+00
  6.2200E-01  9.5098E-01  8.6565E-01  1.8166E+00
  6.2300E-01  9.5125E-01  8.6542E-01  1.8167E+00
  6.2400E-01  9.5151E-01  8.6518E-01  1.8167E+00
  6.2500E-01  9.5178E-01  8.6494E-01  1.8167E+00
  6.2600E-01  9.5205E-01  8.6470E-01  1.8168E+00
  6.2700E-01  9.5232E-01  8.6445E-01  1.8168E+00
  6.2800E-01  9.5258E-01  8.6421E-01  1.8168E+00
  6.2900E-01  9.5282E-01  8.6397E-01  1.8168E+00
  6.3000E-01  9.5306E-01  8.6373E-01  1.8168E+00
  6.3100E-01  9.5330E-01  8.6349E-01  1.8168E+00
  6.3200E-01  9.5355E-01  8.6324E-01  1.8168E+00
  6.3300E-01  9.5379E-01  8.6299E-01  1.8168E+00
  6.3400E-01  9.5403E-01  8.6273E-01  1.8168E+00
  6.3500E-01  9.5428E-01  8.6247E-01  1.8168E+00
  6.3600E-01  9.5452E-01  8.6221E-01  1.8167E+00
  6.3700E-01  9.5477E-01  8.6194E-01  1.8167E+00
  6.3800E-01  9.5501E-01  8.6167E-01  1.8167E+00
  6.3900E-01  9.5523E-01  8.6141E-01  1.8166E+00
  6.4000E-01  9.5544E-01  8.6115E-01  1.8166E+00
  6.4100E-01  9.5565E-01  8.6088E-01  1.8165E+00
  6.4200E-01  9.5586E-01  8.6061E-01  1.8165E+00
  6.4300E-01  9.5607E-01  8.6034E-01  1.8164E+00
  6.4400E-01  9.5628E-01  8.6006E-01  1.8163E+00
  6.4500E-01  9.5649E-01  8.5977E-01  1.8163E+00
  6.4600E-01  9.5671E-01  8.5948E-01  1.8162E+00
  6.4700E-01  9.5692E-01  8.5919E-01  1.8161E+00
  6.4800E-01  9.5713E-01  8.5889E-01  1.8160E+00
  6.4900E-01  9.5730E-01  8.5861E-01  1.8159E+00
  6.5000E-01  9.5746E-01  8.5832E-01  1.8158E+00
  6.5100E-01  9.5762E-01  8.5803E-01  1.8156E+00
  6.5200E-01  9.5777E-01  8.5774E-01  1.8155E+00
  6.5300E-01  9.5793E-01  8.5744E-01  1.8154E+00
  6.5400E-01  9.5809E-01  8.5714E-01  1.8152E+00
  6.5500E-01  9.5824E-01  8.5683E-01  1.8151E+00
  6.5600E-01  9.5839E-01  8.5652E-01  1.8149E+00
  6.5700E-01  9.5855E-01  8.5620E-01  1.8147E+00
  6.5800E-01  9.5870E-01  8.5588E-01  1.8146E+00
  6.5900E-01  9.5883E-01  8.5556E-01  1.8144E+00
  6.6000E-01  9.5891E-01  8.5527E-01  1.8142E+00
  6.6100E-01  9.5898E-01  8.5496E-01  1.8139E+00
  6.6200E-01  9.5906E-01  8.5465E-01  1.8137E+00
  6.6300E-01  9.5914E-01  8.5434E-01  1.8135E+00
  6.6400E-01  9.5921E-01  8.5402E-01  1.8132E+00
  6.6500E-01  9.5929E-01  8.5370E-01  1.8130E+00
  6.6600E-01  9.5936E-01  8.5337E-01  1.8127E+00
  6.6700E-01  9.5944E-01  8.5304E-01  1.8125E+00
  6.6800E-01  9.5951E-01  8.5270E-01  1.8122E+00
  6.6900E-01  9.5959E-01  8.5236E-01  1.8120E+00
  6.7000E-01  9.5960E-01  8.5205E-01  1.8116E+00
  6.7100E-01  9.5958E-01  8.5175E-01  1.8113E+00
  6.7200E-01  9.5956E-01  8.5145E-01  1.8110E+00
  6.7300E-01  9.5954E-01  8.5114E-01  1.8107E+00
  6.7400E-01  9.5953E-01  8.5083E-01  1.8104E+00
  6.7500E-01  9.5954E-01  8.5051E-01  1.8100E+00
  6.7600E-01  9.5954E-01  8.5019E-01  1.8097E+00
  6.7700E-01  9.5956E-01  8.4987E-01  1.8094E+00
  6.7800E-01  9.5959E-01  8.4954E-01  1.8091E+00
  6.7900E-01  9.5963E-01  8.4921E-01  1.8088E+00
  6.8000E-01  9.5969E-01  8.4887E-01  1.8086E+00
  6.8100E-01  9.5968E-01  8.4857E-01  1.8082E+00
  6.8200E-01  9.5969E-01  8.4827E-01  1.8080E+00
  6.8300E-01  9.5973E-01  8.4797E-01  1.8077E+00
  6.8400E-01  9.5981E-01  8.4766E-01  1.8075E+00
  6.8500E-01  9.5993E-01  8.4735E-01  1.8073E+00
  6.8600E-01  9.6009E-01  8.4703E-01  1.8071E+00
  6.8700E-01  9.6030E-01  8.4671E-01  1.8070E+00
  6.8800E-01  9.6056E-01  8.4639E-01  1.8069E+00
  6.8900E-01  9.6086E-01  8.4606E-01  1.8069E+00
  6.9000E-01  9.6123E-01  8.4573E-01  1.8070E+00
  6.9100E-01  9.6292E-01  8.4403E-01  1.8070E+00
  6.9200E-01  9.6301E-01  8.4533E-01  1.8083E+00
  6.9300E-01  9.6476E-01  8.4364E-01  1.8084E+00
  6.9400E-01  9.6726E-01  8.4085E-01  1.8081E+00
  6.9500E-01  9.6656E-01  8.4531E-01  1.8119E+00
  6.9600E-01  9.6964E-01  8.4453E-01  1.8142E+00
  6.9700E-01  9.7409E-01  8.4373E-01  1.8178E+00
  6.9800E-01  9.7830E-01  8.4531E-01  1.8236E+00
  6.9900E-01  9.8440E-01  8.4422E-01  1.8286E+00
  7.0000E-01  9.9070E-01  8.4395E-01  1.8347E+00
  7.0100E-01  1.0051E+00  8.4564E-01  1.8507E+00
  7.0200E-01  1.0140E+00  8.4774E-01  1.8618E+00
  7.0300E-01  1.0205E+00  8.4966E-01  1.8702E+00
  7.0400E-01  9.2512E-01  8.6074E-01  1.7859E+00
  7.0500E-01  8.3865E-01  8.8522E-01  1.7239E+00
  7.0600E-01  8.7559E-01  8.9348E-01  1.7691E+00
  7.0700E-01  8.9755E-01  8.9413E-01  1.7917E+00
  7.0800E-01  9.2014E-01  8.8458E-01  1.8047E+00
  7.0900E-01  9.2035E-01  8.8492E-01  1.8053E+00
  7.1000E-01  9.4411E-01  8.7153E-01  1.8156E+00
  7.1100E-01  9.6401E-01  8.6023E-01  1.8242E+00
  7.1200E-01  9.7834E-01  8.4637E-01  1.8247E+00
  7.1300E-01  9.6951E-01  8.4447E-01  1.8140E+00
  7.1400E-01  9.6426E-01  8.4366E-01  1.8079E+00
  7.1500E-01  9.5868E-01  8.4952E-01  1.8082E+00
  7.1600E-01  9.6048E-01  8.5099E-01  1.8115E+00
  7.1700E-01  9.6673E-01  8.5862E-01  1.8253E+00
  7.1800E-01  9.2332E-01  8.8055E-01  1.8039E+00
  7.1900E-01  9.1295E-01  8.8551E-01  1.7985E+00
  7.2000E-01  9.2102E-01  8.8411E-01  1.8051E+00
  7.2100E-01  9.3738E-01  8.7467E-01  1.8121E+00
  7.2200E-01  9.3664E-01  8.7499E-01  1.8116E+00
  7.2300E-01  9.4771E-01  8.6712E-01  1.8148E+00
  7.2400E-01  9.4979E-01  8.6346E-01  1.8132E+00
  7.2500E-01  9.5004E-01  8.6211E-01  1.8121E+00
  7.2600E-01  9.4893E-01  8.6259E-01  1.8115E+00
  7.2700E-01  9.4853E-01  8.6294E-01  1.8115E+00
  7.2800E-01  9.4786E-01  8.6367E-01  1.8115E+00
  7.2900E-01  9.4661E-01  8.6513E-01  1.8117E+00
  7.3000E-01  9.4608E-01  8.6583E-01  1.8119E+00
  7.3100E-01  9.4511E-01  8.6703E-01  1.8121E+00
  7.3200E-01  9.4209E-01  8.6964E-01  1.8117E+00
  7.3300E-01  9.4293E-01  8.6901E-01  1.8119E+00
  7.3400E-01  9.4090E-01  8.7070E-01  1.8116E+00
  7.3500E-01  9.3942E-01  8.7194E-01  1.8114E+00
  7.3600E-01  9.3898E-01  8.7222E-01  1.8112E+00
  7.3700E-01  9.3821E-01  8.7279E-01  1.8110E+00
  7.3800E-01  9.3770E-01  8.7311E-01  1.8108E+00
  7.3900E-01  9.3696E-01  8.7364E-01  1.8106E+00
  7.4000E-01  9.3704E-01  8.7353E-01  1.8106E+00
  7.4100E-01  9.3647E-01  8.7396E-01  1.8104E+00
  7.4200E-01  9.3615E-01  8.7418E-01  1.8103E+00
  7.4300E-01  9.3615E-01  8.7418E-01  1.8103E+00
  7.4400E-01  9.3634E-01  8.7404E-01  1.8104E+00
  7.4500E-01  9.3687E-01  8.7366E-01  1.8105E+00
  7.4600E-01  9.3535E-01  8.7476E-01  1.8101E+00
  7.4700E-01  9.3635E-01  8.7405E-01  1.8104E+00
  7.4800E-01  9.3539E-01  8.7475E-01  1.8101E+00
  7.4900E-01  9.3712E-01  8.7352E-01  1.8106E+00
  7.5000E-01  9.3620E-01  8.7423E-01  1.8104E+00
  7.5100E-01  9.3640E-01  8.7409E-01  1.8105E+00
  7.5200E-01  9.3660E-01  8.7395E-01  1.8106E+00
  7.5300E-01  9.3681E-01  8.7380E-01  1.8106E+00
  7.5400E-01  9.3701E-01  8.7366E-01  1.8107E+00
  7.5500E-01  9.3722E-01  8.7351E-01  1.8107E+00
  7.5600E-01  9.3743E-01  8.7336E-01  1.8108E+00
  7.5700E-01  9.3764E-01  8.7321E-01  1.8109E+00
  7.5800E-01  9.3786E-01  8.7306E-01  1.8109E+00
  7.5900E-01  9.3807E-01  8.7290E-01  1.8110E+00
  7.6000E-01  9.3829E-01  8.7274E-01  1.8110E+00
  7.6100E-01  9.3851E-01  8.7258E-01  1.8111E+00
  7.6200E-01  9.3871E-01  8.7244E-01  1.8111E+00
  7.6300E-01  9.3891E-01  8.7229E-01  1.8112E+00
  7.6400E-01  9.3911E-01  8.7214E-01  1.8112E+00
  7.6500E-01  9.3931E-01  8.7198E-01  1.8113E+00
  7.6600E-01  9.3951E-01  8.7183E-01  1.8113E+00
  7.6700E-01  9.3972E-01  8.7167E-01  1.8114E+00
  7.6800E-01  9.3993E-01  8.7151E-01  1.8114E+00
  7.6900E-01  9.4014E-01  8.7135E-01  1.8115E+00
  7.7000E-01  9.4035E-01  8.7119E-01  1.8115E+00
  7.7100E-01  9.4056E-01  8.7102E-01  1.8116E+00
  7.7200E-01  9.4077E-01  8.7085E-01  1.8116E+00
  7.7300E-01  9.4099E-01  8.7068E-01  1.8117E+00
  7.7400E-01  9.4119E-01  8.7052E-01  1.8117E+00
  7.7500E-01  9.4138E-01  8.7036E-01  1.8117E+00
  7.7600E-01  9.4158E-01  8.7020E-01  1.8118E+00
  7.7700E-01  9.4177E-01  8.7004E-01  1.8118E+00
  7.7800E-01  9.4197E-01  8.6988E-01  1.8118E+00
  7.7900E-01  9.4217E-01  8.6971E-01  1.8119E+00
  7.8000E-01  9.4237E-01  8.6954E-01  1.8119E+00
  7.8100E-01  9.4257E-01  8.6937E-01  1.8119E+00
  7.8200E-01  9.4277E-01  8.6920E-01  1.8120E+00
  7.8300E-01  9.4298E-01  8.6903E-01  1.8120E+00
  7.8400E-01  9.4318E-01  8.6885E-01  1.8120E+00
  7.8500E-01  9.4339E-01  8.6867E-01  1.8121E+00
  7.8600E-01  9.4359E-01  8.6849E-01  1.8121E+00
  7.8700E-01  9.4377E-01  8.6833E-01  1.8121E+00
  7.8800E-01  9.4395E-01  8.6816E-01  1.8121E+00
  7.8900E-01  9.4414E-01  8.6799E-01  1.8121E+00
  7.9000E-01  9.4432E-01  8.6782E-01  1.8121E+00
  7.9100E-01  9.4450E-01  8.6765E-01  1.8121E+00
  7.9200E-01  9.4469E-01  8.6747E-01  1.8122E+00
  7.9300E-01  9.4487E-01  8.6730E-01  1.8122E+00
  7.9400E-01  9.4506E-01  8.6712E-01  1.8122E+00
  7.9500E-01  9.4525E-01  8.6694E-01  1.8122E+00
  7.9600E-01  9.4544E-01  8.6675E-01  1.8122E+00
  7.9700E-01  9.4563E-01  8.6657E-01  1.8122E+00
  7.9800E-01  9.4582E-01  8.6638E-01  1.8122E+00
  7.9900E-01  9.4598E-01  8.6622E-01  1.8122E+00
