# GGADT v1.2.1
# =-=-=
# Total cross sections as a function of energy
# -----------------------------------
# Parameter values
# -----------------------------------
# a_eff:                               8.90000E-01 micron
# ephot_min:                           6.00000E-01kiloelectron-vo
# ephot_max:                           8.00000E-01kiloelectron-vo
# nephots:                                     200
# Material file:                                   hematite
# geometry:                                        ellipsoid
# angle_mode:                                      file
# angle_file:                                      angles
# ngrain:                                      128
# norientations:                                 1
# grain-axis-z:                        9.95633E-01 micron
# grain-axis-y:                        9.95633E-01 micron
# grain-axis-z:                        7.11167E-01 micron
# grid-width:                          1.99127E+00 micron
# axes-convention:                                 ddscat
# parameter_file_name:                             large_params_set.ini
# -----------------------------------
 # [ephot (kiloelectron-volt)] [Q_sca] [Q_abs] [Q_ext]
  6.0000E-01  1.3683E+00  1.1676E+00  2.5359E+00
  6.0100E-01  1.3692E+00  1.1670E+00  2.5362E+00
  6.0200E-01  1.3702E+00  1.1664E+00  2.5366E+00
  6.0300E-01  1.3711E+00  1.1658E+00  2.5370E+00
  6.0400E-01  1.3721E+00  1.1652E+00  2.5373E+00
  6.0500E-01  1.3731E+00  1.1646E+00  2.5377E+00
  6.0600E-01  1.3742E+00  1.1640E+00  2.5382E+00
  6.0700E-01  1.3752E+00  1.1634E+00  2.5386E+00
  6.0800E-01  1.3763E+00  1.1627E+00  2.5390E+00
  6.0900E-01  1.3775E+00  1.1621E+00  2.5396E+00
  6.1000E-01  1.3787E+00  1.1615E+00  2.5402E+00
  6.1100E-01  1.3799E+00  1.1609E+00  2.5408E+00
  6.1200E-01  1.3811E+00  1.1603E+00  2.5415E+00
  6.1300E-01  1.3824E+00  1.1597E+00  2.5421E+00
  6.1400E-01  1.3838E+00  1.1591E+00  2.5428E+00
  6.1500E-01  1.3851E+00  1.1584E+00  2.5435E+00
  6.1600E-01  1.3865E+00  1.1578E+00  2.5443E+00
  6.1700E-01  1.3879E+00  1.1571E+00  2.5450E+00
  6.1800E-01  1.3894E+00  1.1565E+00  2.5459E+00
  6.1900E-01  1.3910E+00  1.1558E+00  2.5468E+00
  6.2000E-01  1.3926E+00  1.1552E+00  2.5478E+00
  6.2100E-01  1.3942E+00  1.1546E+00  2.5488E+00
  6.2200E-01  1.3959E+00  1.1539E+00  2.5498E+00
  6.2300E-01  1.3976E+00  1.1533E+00  2.5509E+00
  6.2400E-01  1.3994E+00  1.1526E+00  2.5520E+00
  6.2500E-01  1.4012E+00  1.1519E+00  2.5532E+00
  6.2600E-01  1.4031E+00  1.1513E+00  2.5544E+00
  6.2700E-01  1.4050E+00  1.1506E+00  2.5556E+00
  6.2800E-01  1.4070E+00  1.1499E+00  2.5569E+00
  6.2900E-01  1.4091E+00  1.1492E+00  2.5584E+00
  6.3000E-01  1.4113E+00  1.1486E+00  2.5599E+00
  6.3100E-01  1.4135E+00  1.1479E+00  2.5614E+00
  6.3200E-01  1.4158E+00  1.1472E+00  2.5630E+00
  6.3300E-01  1.4182E+00  1.1465E+00  2.5647E+00
  6.3400E-01  1.4206E+00  1.1458E+00  2.5664E+00
  6.3500E-01  1.4231E+00  1.1451E+00  2.5681E+00
  6.3600E-01  1.4256E+00  1.1443E+00  2.5699E+00
  6.3700E-01  1.4282E+00  1.1436E+00  2.5718E+00
  6.3800E-01  1.4308E+00  1.1429E+00  2.5737E+00
  6.3900E-01  1.4338E+00  1.1421E+00  2.5759E+00
  6.4000E-01  1.4368E+00  1.1414E+00  2.5782E+00
  6.4100E-01  1.4399E+00  1.1407E+00  2.5806E+00
  6.4200E-01  1.4430E+00  1.1399E+00  2.5830E+00
  6.4300E-01  1.4463E+00  1.1392E+00  2.5854E+00
  6.4400E-01  1.4496E+00  1.1384E+00  2.5880E+00
  6.4500E-01  1.4529E+00  1.1376E+00  2.5906E+00
  6.4600E-01  1.4564E+00  1.1369E+00  2.5933E+00
  6.4700E-01  1.4599E+00  1.1361E+00  2.5960E+00
  6.4800E-01  1.4636E+00  1.1352E+00  2.5988E+00
  6.4900E-01  1.4676E+00  1.1345E+00  2.6020E+00
  6.5000E-01  1.4717E+00  1.1337E+00  2.6054E+00
  6.5100E-01  1.4760E+00  1.1329E+00  2.6089E+00
  6.5200E-01  1.4804E+00  1.1321E+00  2.6125E+00
  6.5300E-01  1.4848E+00  1.1313E+00  2.6161E+00
  6.5400E-01  1.4893E+00  1.1305E+00  2.6198E+00
  6.5500E-01  1.4940E+00  1.1297E+00  2.6236E+00
  6.5600E-01  1.4987E+00  1.1289E+00  2.6275E+00
  6.5700E-01  1.5035E+00  1.1280E+00  2.6315E+00
  6.5800E-01  1.5083E+00  1.1271E+00  2.6355E+00
  6.5900E-01  1.5135E+00  1.1263E+00  2.6398E+00
  6.6000E-01  1.5193E+00  1.1255E+00  2.6448E+00
  6.6100E-01  1.5251E+00  1.1247E+00  2.6498E+00
  6.6200E-01  1.5310E+00  1.1239E+00  2.6549E+00
  6.6300E-01  1.5370E+00  1.1231E+00  2.6601E+00
  6.6400E-01  1.5431E+00  1.1222E+00  2.6653E+00
  6.6500E-01  1.5493E+00  1.1214E+00  2.6706E+00
  6.6600E-01  1.5554E+00  1.1205E+00  2.6760E+00
  6.6700E-01  1.5617E+00  1.1196E+00  2.6813E+00
  6.6800E-01  1.5680E+00  1.1187E+00  2.6867E+00
  6.6900E-01  1.5743E+00  1.1179E+00  2.6922E+00
  6.7000E-01  1.5815E+00  1.1170E+00  2.6985E+00
  6.7100E-01  1.5891E+00  1.1163E+00  2.7053E+00
  6.7200E-01  1.5966E+00  1.1155E+00  2.7121E+00
  6.7300E-01  1.6040E+00  1.1147E+00  2.7187E+00
  6.7400E-01  1.6113E+00  1.1139E+00  2.7252E+00
  6.7500E-01  1.6186E+00  1.1131E+00  2.7316E+00
  6.7600E-01  1.6256E+00  1.1123E+00  2.7379E+00
  6.7700E-01  1.6325E+00  1.1114E+00  2.7439E+00
  6.7800E-01  1.6392E+00  1.1106E+00  2.7498E+00
  6.7900E-01  1.6457E+00  1.1097E+00  2.7554E+00
  6.8000E-01  1.6519E+00  1.1089E+00  2.7608E+00
  6.8100E-01  1.6589E+00  1.1081E+00  2.7670E+00
  6.8200E-01  1.6654E+00  1.1073E+00  2.7727E+00
  6.8300E-01  1.6710E+00  1.1066E+00  2.7776E+00
  6.8400E-01  1.6757E+00  1.1058E+00  2.7815E+00
  6.8500E-01  1.6794E+00  1.1050E+00  2.7845E+00
  6.8600E-01  1.6820E+00  1.1042E+00  2.7863E+00
  6.8700E-01  1.6835E+00  1.1034E+00  2.7869E+00
  6.8800E-01  1.6837E+00  1.1026E+00  2.7863E+00
  6.8900E-01  1.6827E+00  1.1018E+00  2.7845E+00
  6.9000E-01  1.6803E+00  1.1010E+00  2.7812E+00
  6.9100E-01  1.6909E+00  1.0931E+00  2.7840E+00
  6.9200E-01  1.6609E+00  1.0970E+00  2.7578E+00
  6.9300E-01  1.6481E+00  1.0918E+00  2.7399E+00
  6.9400E-01  1.6215E+00  1.0928E+00  2.7143E+00
  6.9500E-01  1.5652E+00  1.0971E+00  2.6622E+00
  6.9600E-01  1.5209E+00  1.0926E+00  2.6135E+00
  6.9700E-01  1.4450E+00  1.0936E+00  2.5386E+00
  6.9800E-01  1.3562E+00  1.0920E+00  2.4482E+00
  6.9900E-01  1.2303E+00  1.0932E+00  2.3235E+00
  7.0000E-01  1.0748E+00  1.0902E+00  2.1650E+00
  7.0100E-01  8.9649E-01  1.0985E+00  1.9950E+00
  7.0200E-01  7.0601E-01  1.0955E+00  1.8015E+00
  7.0300E-01  6.4583E-01  1.1069E+00  1.7527E+00
  7.0400E-01  9.0662E-01  1.1233E+00  2.0299E+00
  7.0500E-01  1.4412E+00  1.1624E+00  2.6036E+00
  7.0600E-01  1.2708E+00  1.2382E+00  2.5089E+00
  7.0700E-01  1.2274E+00  1.2447E+00  2.4721E+00
  7.0800E-01  1.2437E+00  1.2487E+00  2.4923E+00
  7.0900E-01  1.2492E+00  1.2474E+00  2.4966E+00
  7.1000E-01  1.2603E+00  1.2436E+00  2.5039E+00
  7.1100E-01  1.2674E+00  1.2403E+00  2.5077E+00
  7.1200E-01  1.2775E+00  1.2362E+00  2.5137E+00
  7.1300E-01  1.2914E+00  1.2291E+00  2.5205E+00
  7.1400E-01  1.3002E+00  1.2243E+00  2.5245E+00
  7.1500E-01  1.3074E+00  1.2213E+00  2.5287E+00
  7.1600E-01  1.3232E+00  1.2156E+00  2.5388E+00
  7.1700E-01  1.3440E+00  1.2100E+00  2.5541E+00
  7.1800E-01  1.3049E+00  1.2148E+00  2.5197E+00
  7.1900E-01  1.1942E+00  1.2327E+00  2.4269E+00
  7.2000E-01  1.2441E+00  1.2389E+00  2.4830E+00
  7.2100E-01  1.2413E+00  1.2417E+00  2.4830E+00
  7.2200E-01  1.2623E+00  1.2398E+00  2.5022E+00
  7.2300E-01  1.2813E+00  1.2339E+00  2.5152E+00
  7.2400E-01  1.2969E+00  1.2260E+00  2.5229E+00
  7.2500E-01  1.3079E+00  1.2197E+00  2.5277E+00
  7.2600E-01  1.3167E+00  1.2160E+00  2.5327E+00
  7.2700E-01  1.3217E+00  1.2146E+00  2.5364E+00
  7.2800E-01  1.3256E+00  1.2138E+00  2.5394E+00
  7.2900E-01  1.3314E+00  1.2121E+00  2.5435E+00
  7.3000E-01  1.3383E+00  1.2103E+00  2.5486E+00
  7.3100E-01  1.3389E+00  1.2111E+00  2.5500E+00
  7.3200E-01  1.3382E+00  1.2118E+00  2.5500E+00
  7.3300E-01  1.3292E+00  1.2147E+00  2.5439E+00
  7.3400E-01  1.3228E+00  1.2165E+00  2.5393E+00
  7.3500E-01  1.3168E+00  1.2181E+00  2.5349E+00
  7.3600E-01  1.3109E+00  1.2197E+00  2.5306E+00
  7.3700E-01  1.3063E+00  1.2209E+00  2.5272E+00
  7.3800E-01  1.3009E+00  1.2224E+00  2.5233E+00
  7.3900E-01  1.2973E+00  1.2234E+00  2.5207E+00
  7.4000E-01  1.2933E+00  1.2246E+00  2.5178E+00
  7.4100E-01  1.2909E+00  1.2254E+00  2.5163E+00
  7.4200E-01  1.2891E+00  1.2261E+00  2.5152E+00
  7.4300E-01  1.2868E+00  1.2269E+00  2.5138E+00
  7.4400E-01  1.2855E+00  1.2275E+00  2.5130E+00
  7.4500E-01  1.2855E+00  1.2278E+00  2.5133E+00
  7.4600E-01  1.2855E+00  1.2280E+00  2.5135E+00
  7.4700E-01  1.2855E+00  1.2282E+00  2.5137E+00
  7.4800E-01  1.2865E+00  1.2281E+00  2.5146E+00
  7.4900E-01  1.2865E+00  1.2283E+00  2.5148E+00
  7.5000E-01  1.2876E+00  1.2281E+00  2.5157E+00
  7.5100E-01  1.2883E+00  1.2279E+00  2.5162E+00
  7.5200E-01  1.2890E+00  1.2278E+00  2.5167E+00
  7.5300E-01  1.2896E+00  1.2276E+00  2.5173E+00
  7.5400E-01  1.2903E+00  1.2275E+00  2.5178E+00
  7.5500E-01  1.2909E+00  1.2273E+00  2.5183E+00
  7.5600E-01  1.2916E+00  1.2272E+00  2.5188E+00
  7.5700E-01  1.2922E+00  1.2271E+00  2.5192E+00
  7.5800E-01  1.2928E+00  1.2269E+00  2.5197E+00
  7.5900E-01  1.2934E+00  1.2267E+00  2.5202E+00
  7.6000E-01  1.2940E+00  1.2266E+00  2.5206E+00
  7.6100E-01  1.2946E+00  1.2264E+00  2.5210E+00
  7.6200E-01  1.2951E+00  1.2263E+00  2.5214E+00
  7.6300E-01  1.2956E+00  1.2261E+00  2.5217E+00
  7.6400E-01  1.2960E+00  1.2260E+00  2.5220E+00
  7.6500E-01  1.2965E+00  1.2258E+00  2.5224E+00
  7.6600E-01  1.2970E+00  1.2257E+00  2.5227E+00
  7.6700E-01  1.2975E+00  1.2255E+00  2.5230E+00
  7.6800E-01  1.2979E+00  1.2254E+00  2.5233E+00
  7.6900E-01  1.2984E+00  1.2252E+00  2.5236E+00
  7.7000E-01  1.2989E+00  1.2251E+00  2.5239E+00
  7.7100E-01  1.2994E+00  1.2249E+00  2.5243E+00
  7.7200E-01  1.2998E+00  1.2247E+00  2.5246E+00
  7.7300E-01  1.3003E+00  1.2246E+00  2.5249E+00
  7.7400E-01  1.3007E+00  1.2244E+00  2.5251E+00
  7.7500E-01  1.3011E+00  1.2243E+00  2.5254E+00
  7.7600E-01  1.3016E+00  1.2241E+00  2.5256E+00
  7.7700E-01  1.3020E+00  1.2239E+00  2.5259E+00
  7.7800E-01  1.3024E+00  1.2238E+00  2.5262E+00
  7.7900E-01  1.3028E+00  1.2236E+00  2.5264E+00
  7.8000E-01  1.3032E+00  1.2234E+00  2.5267E+00
  7.8100E-01  1.3037E+00  1.2233E+00  2.5269E+00
  7.8200E-01  1.3041E+00  1.2231E+00  2.5272E+00
  7.8300E-01  1.3045E+00  1.2229E+00  2.5274E+00
  7.8400E-01  1.3049E+00  1.2228E+00  2.5277E+00
  7.8500E-01  1.3054E+00  1.2226E+00  2.5279E+00
  7.8600E-01  1.3058E+00  1.2224E+00  2.5282E+00
  7.8700E-01  1.3062E+00  1.2223E+00  2.5284E+00
  7.8800E-01  1.3065E+00  1.2221E+00  2.5286E+00
  7.8900E-01  1.3069E+00  1.2219E+00  2.5289E+00
  7.9000E-01  1.3073E+00  1.2218E+00  2.5291E+00
  7.9100E-01  1.3077E+00  1.2216E+00  2.5293E+00
  7.9200E-01  1.3081E+00  1.2214E+00  2.5296E+00
  7.9300E-01  1.3085E+00  1.2213E+00  2.5298E+00
  7.9400E-01  1.3089E+00  1.2211E+00  2.5300E+00
  7.9500E-01  1.3093E+00  1.2209E+00  2.5303E+00
  7.9600E-01  1.3098E+00  1.2207E+00  2.5305E+00
  7.9700E-01  1.3102E+00  1.2206E+00  2.5307E+00
  7.9800E-01  1.3106E+00  1.2204E+00  2.5310E+00
  7.9900E-01  1.3109E+00  1.2202E+00  2.5311E+00
