# GGADT v1.2.1
# =-=-=
# Total cross sections as a function of energy
# -----------------------------------
# Parameter values
# -----------------------------------
# a_eff:                               5.60000E-01 micron
# ephot_min:                           6.00000E-01kiloelectron-vo
# ephot_max:                           8.00000E-01kiloelectron-vo
# nephots:                                     200
# Material file:                                   hematite
# geometry:                                        ellipsoid
# angle_mode:                                      random
# ngrain:                                      128
# norientations:                                 1
# grain-axis-z:                        6.26466E-01 micron
# grain-axis-y:                        6.26466E-01 micron
# grain-axis-z:                        4.47476E-01 micron
# grid-width:                          1.25293E+00 micron
# axes-convention:                                 ddscat
# parameter_file_name:                             large_params_random.ini
# -----------------------------------
 # [ephot (kiloelectron-volt)] [Q_sca] [Q_abs] [Q_ext]
  6.0000E-01  1.0366E+00  8.1959E-01  1.8562E+00
  6.0100E-01  1.0380E+00  8.1909E-01  1.8571E+00
  6.0200E-01  1.0394E+00  8.1858E-01  1.8579E+00
  6.0300E-01  1.0408E+00  8.1806E-01  1.8588E+00
  6.0400E-01  1.0422E+00  8.1753E-01  1.8598E+00
  6.0500E-01  1.0437E+00  8.1699E-01  1.8607E+00
  6.0600E-01  1.0452E+00  8.1645E-01  1.8616E+00
  6.0700E-01  1.0467E+00  8.1590E-01  1.8626E+00
  6.0800E-01  1.0483E+00  8.1535E-01  1.8636E+00
  6.0900E-01  1.0499E+00  8.1484E-01  1.8647E+00
  6.1000E-01  1.0516E+00  8.1432E-01  1.8659E+00
  6.1100E-01  1.0533E+00  8.1379E-01  1.8671E+00
  6.1200E-01  1.0550E+00  8.1326E-01  1.8682E+00
  6.1300E-01  1.0567E+00  8.1272E-01  1.8695E+00
  6.1400E-01  1.0585E+00  8.1217E-01  1.8707E+00
  6.1500E-01  1.0603E+00  8.1162E-01  1.8720E+00
  6.1600E-01  1.0622E+00  8.1105E-01  1.8732E+00
  6.1700E-01  1.0641E+00  8.1048E-01  1.8746E+00
  6.1800E-01  1.0660E+00  8.0991E-01  1.8759E+00
  6.1900E-01  1.0680E+00  8.0938E-01  1.8774E+00
  6.2000E-01  1.0700E+00  8.0884E-01  1.8789E+00
  6.2100E-01  1.0721E+00  8.0830E-01  1.8804E+00
  6.2200E-01  1.0742E+00  8.0774E-01  1.8820E+00
  6.2300E-01  1.0764E+00  8.0718E-01  1.8835E+00
  6.2400E-01  1.0785E+00  8.0661E-01  1.8851E+00
  6.2500E-01  1.0807E+00  8.0603E-01  1.8868E+00
  6.2600E-01  1.0830E+00  8.0545E-01  1.8884E+00
  6.2700E-01  1.0853E+00  8.0486E-01  1.8901E+00
  6.2800E-01  1.0876E+00  8.0427E-01  1.8919E+00
  6.2900E-01  1.0901E+00  8.0370E-01  1.8938E+00
  6.3000E-01  1.0925E+00  8.0313E-01  1.8957E+00
  6.3100E-01  1.0951E+00  8.0254E-01  1.8976E+00
  6.3200E-01  1.0976E+00  8.0196E-01  1.8996E+00
  6.3300E-01  1.1002E+00  8.0136E-01  1.9016E+00
  6.3400E-01  1.1029E+00  8.0075E-01  1.9036E+00
  6.3500E-01  1.1056E+00  8.0014E-01  1.9057E+00
  6.3600E-01  1.1083E+00  7.9952E-01  1.9078E+00
  6.3700E-01  1.1110E+00  7.9889E-01  1.9099E+00
  6.3800E-01  1.1139E+00  7.9826E-01  1.9121E+00
  6.3900E-01  1.1169E+00  7.9765E-01  1.9145E+00
  6.4000E-01  1.1199E+00  7.9703E-01  1.9169E+00
  6.4100E-01  1.1230E+00  7.9640E-01  1.9194E+00
  6.4200E-01  1.1261E+00  7.9577E-01  1.9219E+00
  6.4300E-01  1.1293E+00  7.9513E-01  1.9244E+00
  6.4400E-01  1.1325E+00  7.9448E-01  1.9270E+00
  6.4500E-01  1.1357E+00  7.9382E-01  1.9295E+00
  6.4600E-01  1.1390E+00  7.9315E-01  1.9321E+00
  6.4700E-01  1.1423E+00  7.9248E-01  1.9348E+00
  6.4800E-01  1.1457E+00  7.9179E-01  1.9375E+00
  6.4900E-01  1.1492E+00  7.9114E-01  1.9404E+00
  6.5000E-01  1.1529E+00  7.9049E-01  1.9434E+00
  6.5100E-01  1.1566E+00  7.8983E-01  1.9464E+00
  6.5200E-01  1.1603E+00  7.8916E-01  1.9495E+00
  6.5300E-01  1.1641E+00  7.8848E-01  1.9525E+00
  6.5400E-01  1.1678E+00  7.8779E-01  1.9556E+00
  6.5500E-01  1.1716E+00  7.8710E-01  1.9587E+00
  6.5600E-01  1.1754E+00  7.8639E-01  1.9618E+00
  6.5700E-01  1.1793E+00  7.8568E-01  1.9650E+00
  6.5800E-01  1.1831E+00  7.8496E-01  1.9681E+00
  6.5900E-01  1.1871E+00  7.8425E-01  1.9713E+00
  6.6000E-01  1.1913E+00  7.8358E-01  1.9749E+00
  6.6100E-01  1.1955E+00  7.8290E-01  1.9784E+00
  6.6200E-01  1.1997E+00  7.8222E-01  1.9819E+00
  6.6300E-01  1.2038E+00  7.8152E-01  1.9853E+00
  6.6400E-01  1.2079E+00  7.8082E-01  1.9888E+00
  6.6500E-01  1.2120E+00  7.8011E-01  1.9921E+00
  6.6600E-01  1.2161E+00  7.7939E-01  1.9954E+00
  6.6700E-01  1.2200E+00  7.7866E-01  1.9987E+00
  6.6800E-01  1.2240E+00  7.7792E-01  2.0019E+00
  6.6900E-01  1.2279E+00  7.7717E-01  2.0050E+00
  6.7000E-01  1.2319E+00  7.7649E-01  2.0084E+00
  6.7100E-01  1.2358E+00  7.7585E-01  2.0117E+00
  6.7200E-01  1.2396E+00  7.7519E-01  2.0148E+00
  6.7300E-01  1.2431E+00  7.7453E-01  2.0176E+00
  6.7400E-01  1.2464E+00  7.7387E-01  2.0203E+00
  6.7500E-01  1.2495E+00  7.7319E-01  2.0227E+00
  6.7600E-01  1.2523E+00  7.7251E-01  2.0248E+00
  6.7700E-01  1.2549E+00  7.7182E-01  2.0267E+00
  6.7800E-01  1.2571E+00  7.7112E-01  2.0283E+00
  6.7900E-01  1.2591E+00  7.7041E-01  2.0295E+00
  6.8000E-01  1.2608E+00  7.6970E-01  2.0305E+00
  6.8100E-01  1.2615E+00  7.6906E-01  2.0305E+00
  6.8200E-01  1.2613E+00  7.6843E-01  2.0297E+00
  6.8300E-01  1.2603E+00  7.6780E-01  2.0281E+00
  6.8400E-01  1.2584E+00  7.6716E-01  2.0256E+00
  6.8500E-01  1.2556E+00  7.6651E-01  2.0221E+00
  6.8600E-01  1.2519E+00  7.6586E-01  2.0178E+00
  6.8700E-01  1.2472E+00  7.6519E-01  2.0124E+00
  6.8800E-01  1.2416E+00  7.6453E-01  2.0061E+00
  6.8900E-01  1.2349E+00  7.6385E-01  1.9988E+00
  6.9000E-01  1.2273E+00  7.6317E-01  1.9904E+00
  6.9100E-01  1.2242E+00  7.5674E-01  1.9810E+00
  6.9200E-01  1.1913E+00  7.5990E-01  1.9512E+00
  6.9300E-01  1.1697E+00  7.5564E-01  1.9254E+00
  6.9400E-01  1.1426E+00  7.5649E-01  1.8991E+00
  6.9500E-01  1.0911E+00  7.5996E-01  1.8511E+00
  6.9600E-01  1.0478E+00  7.5628E-01  1.8041E+00
  6.9700E-01  9.8358E-01  7.5714E-01  1.7407E+00
  6.9800E-01  9.1121E-01  7.5579E-01  1.6670E+00
  6.9900E-01  8.1523E-01  7.5677E-01  1.5720E+00
  7.0000E-01  7.0109E-01  7.5429E-01  1.4554E+00
  7.0100E-01  5.7781E-01  7.6111E-01  1.3389E+00
  7.0200E-01  4.4876E-01  7.5868E-01  1.2074E+00
  7.0300E-01  4.1002E-01  7.6808E-01  1.1781E+00
  7.0400E-01  5.8882E-01  7.8169E-01  1.3705E+00
  7.0500E-01  1.0274E+00  8.1506E-01  1.8425E+00
  7.0600E-01  9.1303E-01  8.8365E-01  1.7967E+00
  7.0700E-01  8.7307E-01  8.8999E-01  1.7631E+00
  7.0800E-01  8.8868E-01  8.9420E-01  1.7829E+00
  7.0900E-01  8.9370E-01  8.9277E-01  1.7865E+00
  7.1000E-01  9.0362E-01  8.8891E-01  1.7925E+00
  7.1100E-01  9.0988E-01  8.8567E-01  1.7955E+00
  7.1200E-01  9.1870E-01  8.8178E-01  1.8005E+00
  7.1300E-01  9.3207E-01  8.7512E-01  1.8072E+00
  7.1400E-01  9.4389E-01  8.7059E-01  1.8145E+00
  7.1500E-01  9.5329E-01  8.6782E-01  1.8211E+00
  7.1600E-01  9.7101E-01  8.6255E-01  1.8336E+00
  7.1700E-01  9.8782E-01  8.5747E-01  1.8453E+00
  7.1800E-01  9.3889E-01  8.6188E-01  1.8008E+00
  7.1900E-01  8.4037E-01  8.7846E-01  1.7188E+00
  7.2000E-01  8.8855E-01  8.8431E-01  1.7729E+00
  7.2100E-01  8.8594E-01  8.8704E-01  1.7730E+00
  7.2200E-01  9.0557E-01  8.8525E-01  1.7908E+00
  7.2300E-01  9.2270E-01  8.7962E-01  1.8023E+00
  7.2400E-01  9.3820E-01  8.7221E-01  1.8104E+00
  7.2500E-01  9.5201E-01  8.6640E-01  1.8184E+00
  7.2600E-01  9.6391E-01  8.6293E-01  1.8268E+00
  7.2700E-01  9.7013E-01  8.6167E-01  1.8318E+00
  7.2800E-01  9.7439E-01  8.6088E-01  1.8353E+00
  7.2900E-01  9.8039E-01  8.5939E-01  1.8398E+00
  7.3000E-01  9.8706E-01  8.5772E-01  1.8448E+00
  7.3100E-01  9.8583E-01  8.5840E-01  1.8442E+00
  7.3200E-01  9.8299E-01  8.5908E-01  1.8421E+00
  7.3300E-01  9.7293E-01  8.6171E-01  1.8346E+00
  7.3400E-01  9.6554E-01  8.6337E-01  1.8289E+00
  7.3500E-01  9.5919E-01  8.6488E-01  1.8241E+00
  7.3600E-01  9.5314E-01  8.6635E-01  1.8195E+00
  7.3700E-01  9.4836E-01  8.6747E-01  1.8158E+00
  7.3800E-01  9.4303E-01  8.6883E-01  1.8119E+00
  7.3900E-01  9.3952E-01  8.6978E-01  1.8093E+00
  7.4000E-01  9.3569E-01  8.7086E-01  1.8066E+00
  7.4100E-01  9.3356E-01  8.7165E-01  1.8052E+00
  7.4200E-01  9.3194E-01  8.7227E-01  1.8042E+00
  7.4300E-01  9.2991E-01  8.7308E-01  1.8030E+00
  7.4400E-01  9.2873E-01  8.7358E-01  1.8023E+00
  7.4500E-01  9.2892E-01  8.7386E-01  1.8028E+00
  7.4600E-01  9.2907E-01  8.7409E-01  1.8032E+00
  7.4700E-01  9.2913E-01  8.7425E-01  1.8034E+00
  7.4800E-01  9.3024E-01  8.7420E-01  1.8044E+00
  7.4900E-01  9.3035E-01  8.7431E-01  1.8047E+00
  7.5000E-01  9.3154E-01  8.7412E-01  1.8057E+00
  7.5100E-01  9.3229E-01  8.7399E-01  1.8063E+00
  7.5200E-01  9.3302E-01  8.7386E-01  1.8069E+00
  7.5300E-01  9.3375E-01  8.7373E-01  1.8075E+00
  7.5400E-01  9.3446E-01  8.7360E-01  1.8081E+00
  7.5500E-01  9.3517E-01  8.7346E-01  1.8086E+00
  7.5600E-01  9.3587E-01  8.7332E-01  1.8092E+00
  7.5700E-01  9.3655E-01  8.7318E-01  1.8097E+00
  7.5800E-01  9.3723E-01  8.7304E-01  1.8103E+00
  7.5900E-01  9.3790E-01  8.7290E-01  1.8108E+00
  7.6000E-01  9.3855E-01  8.7276E-01  1.8113E+00
  7.6100E-01  9.3920E-01  8.7261E-01  1.8118E+00
  7.6200E-01  9.3973E-01  8.7247E-01  1.8122E+00
  7.6300E-01  9.4025E-01  8.7234E-01  1.8126E+00
  7.6400E-01  9.4077E-01  8.7220E-01  1.8130E+00
  7.6500E-01  9.4129E-01  8.7206E-01  1.8133E+00
  7.6600E-01  9.4181E-01  8.7192E-01  1.8137E+00
  7.6700E-01  9.4233E-01  8.7177E-01  1.8141E+00
  7.6800E-01  9.4285E-01  8.7163E-01  1.8145E+00
  7.6900E-01  9.4337E-01  8.7148E-01  1.8148E+00
  7.7000E-01  9.4388E-01  8.7133E-01  1.8152E+00
  7.7100E-01  9.4440E-01  8.7118E-01  1.8156E+00
  7.7200E-01  9.4492E-01  8.7102E-01  1.8159E+00
  7.7300E-01  9.4543E-01  8.7087E-01  1.8163E+00
  7.7400E-01  9.4591E-01  8.7072E-01  1.8166E+00
  7.7500E-01  9.4637E-01  8.7058E-01  1.8169E+00
  7.7600E-01  9.4683E-01  8.7043E-01  1.8173E+00
  7.7700E-01  9.4729E-01  8.7028E-01  1.8176E+00
  7.7800E-01  9.4775E-01  8.7013E-01  1.8179E+00
  7.7900E-01  9.4822E-01  8.6998E-01  1.8182E+00
  7.8000E-01  9.4869E-01  8.6983E-01  1.8185E+00
  7.8100E-01  9.4916E-01  8.6967E-01  1.8188E+00
  7.8200E-01  9.4963E-01  8.6952E-01  1.8191E+00
  7.8300E-01  9.5010E-01  8.6936E-01  1.8195E+00
  7.8400E-01  9.5058E-01  8.6920E-01  1.8198E+00
  7.8500E-01  9.5106E-01  8.6903E-01  1.8201E+00
  7.8600E-01  9.5153E-01  8.6887E-01  1.8204E+00
  7.8700E-01  9.5196E-01  8.6872E-01  1.8207E+00
  7.8800E-01  9.5240E-01  8.6857E-01  1.8210E+00
  7.8900E-01  9.5284E-01  8.6842E-01  1.8213E+00
  7.9000E-01  9.5328E-01  8.6827E-01  1.8216E+00
  7.9100E-01  9.5373E-01  8.6811E-01  1.8218E+00
  7.9200E-01  9.5418E-01  8.6796E-01  1.8221E+00
  7.9300E-01  9.5464E-01  8.6780E-01  1.8224E+00
  7.9400E-01  9.5510E-01  8.6764E-01  1.8227E+00
  7.9500E-01  9.5556E-01  8.6748E-01  1.8230E+00
  7.9600E-01  9.5603E-01  8.6731E-01  1.8233E+00
  7.9700E-01  9.5650E-01  8.6714E-01  1.8236E+00
  7.9800E-01  9.5697E-01  8.6698E-01  1.8240E+00
  7.9900E-01  9.5733E-01  8.6685E-01  1.8242E+00
