# GGADT v1.2.1
# =-=-=
# Total cross sections as a function of energy
# -----------------------------------
# Parameter values
# -----------------------------------
# a_eff:                               6.70000E-01 micron
# ephot_min:                           6.00000E-01kiloelectron-vo
# ephot_max:                           8.00000E-01kiloelectron-vo
# nephots:                                     200
# Material file:                                   hematite
# geometry:                                        ellipsoid
# angle_mode:                                      file
# angle_file:                                      angles
# ngrain:                                      128
# norientations:                                 1
# grain-axis-z:                        7.49522E-01 micron
# grain-axis-y:                        7.49522E-01 micron
# grain-axis-z:                        5.35373E-01 micron
# grid-width:                          1.49904E+00 micron
# axes-convention:                                 ddscat
# parameter_file_name:                             large_params_set.ini
# -----------------------------------
 # [ephot (kiloelectron-volt)] [Q_sca] [Q_abs] [Q_ext]
  6.0000E-01  1.6064E+00  1.1127E+00  2.7192E+00
  6.0100E-01  1.6093E+00  1.1118E+00  2.7212E+00
  6.0200E-01  1.6123E+00  1.1110E+00  2.7233E+00
  6.0300E-01  1.6153E+00  1.1101E+00  2.7253E+00
  6.0400E-01  1.6183E+00  1.1092E+00  2.7275E+00
  6.0500E-01  1.6214E+00  1.1082E+00  2.7296E+00
  6.0600E-01  1.6245E+00  1.1073E+00  2.7318E+00
  6.0700E-01  1.6276E+00  1.1064E+00  2.7340E+00
  6.0800E-01  1.6308E+00  1.1054E+00  2.7362E+00
  6.0900E-01  1.6340E+00  1.1045E+00  2.7385E+00
  6.1000E-01  1.6372E+00  1.1037E+00  2.7409E+00
  6.1100E-01  1.6405E+00  1.1028E+00  2.7432E+00
  6.1200E-01  1.6438E+00  1.1018E+00  2.7456E+00
  6.1300E-01  1.6471E+00  1.1009E+00  2.7481E+00
  6.1400E-01  1.6505E+00  1.1000E+00  2.7505E+00
  6.1500E-01  1.6539E+00  1.0990E+00  2.7530E+00
  6.1600E-01  1.6574E+00  1.0981E+00  2.7555E+00
  6.1700E-01  1.6609E+00  1.0971E+00  2.7580E+00
  6.1800E-01  1.6644E+00  1.0961E+00  2.7606E+00
  6.1900E-01  1.6680E+00  1.0952E+00  2.7632E+00
  6.2000E-01  1.6715E+00  1.0943E+00  2.7658E+00
  6.2100E-01  1.6751E+00  1.0934E+00  2.7685E+00
  6.2200E-01  1.6787E+00  1.0925E+00  2.7712E+00
  6.2300E-01  1.6824E+00  1.0915E+00  2.7739E+00
  6.2400E-01  1.6861E+00  1.0905E+00  2.7766E+00
  6.2500E-01  1.6898E+00  1.0896E+00  2.7794E+00
  6.2600E-01  1.6936E+00  1.0886E+00  2.7822E+00
  6.2700E-01  1.6974E+00  1.0876E+00  2.7850E+00
  6.2800E-01  1.7012E+00  1.0866E+00  2.7878E+00
  6.2900E-01  1.7051E+00  1.0856E+00  2.7907E+00
  6.3000E-01  1.7090E+00  1.0847E+00  2.7936E+00
  6.3100E-01  1.7129E+00  1.0837E+00  2.7965E+00
  6.3200E-01  1.7168E+00  1.0827E+00  2.7995E+00
  6.3300E-01  1.7208E+00  1.0817E+00  2.8024E+00
  6.3400E-01  1.7247E+00  1.0807E+00  2.8054E+00
  6.3500E-01  1.7288E+00  1.0796E+00  2.8084E+00
  6.3600E-01  1.7328E+00  1.0786E+00  2.8114E+00
  6.3700E-01  1.7369E+00  1.0775E+00  2.8144E+00
  6.3800E-01  1.7409E+00  1.0765E+00  2.8174E+00
  6.3900E-01  1.7451E+00  1.0754E+00  2.8205E+00
  6.4000E-01  1.7492E+00  1.0744E+00  2.8236E+00
  6.4100E-01  1.7534E+00  1.0734E+00  2.8267E+00
  6.4200E-01  1.7575E+00  1.0723E+00  2.8299E+00
  6.4300E-01  1.7617E+00  1.0712E+00  2.8330E+00
  6.4400E-01  1.7659E+00  1.0702E+00  2.8360E+00
  6.4500E-01  1.7701E+00  1.0691E+00  2.8391E+00
  6.4600E-01  1.7742E+00  1.0680E+00  2.8422E+00
  6.4700E-01  1.7784E+00  1.0668E+00  2.8452E+00
  6.4800E-01  1.7826E+00  1.0657E+00  2.8483E+00
  6.4900E-01  1.7867E+00  1.0646E+00  2.8513E+00
  6.5000E-01  1.7909E+00  1.0635E+00  2.8544E+00
  6.5100E-01  1.7949E+00  1.0624E+00  2.8574E+00
  6.5200E-01  1.7990E+00  1.0613E+00  2.8603E+00
  6.5300E-01  1.8030E+00  1.0602E+00  2.8632E+00
  6.5400E-01  1.8069E+00  1.0591E+00  2.8660E+00
  6.5500E-01  1.8109E+00  1.0579E+00  2.8688E+00
  6.5600E-01  1.8147E+00  1.0568E+00  2.8715E+00
  6.5700E-01  1.8185E+00  1.0556E+00  2.8741E+00
  6.5800E-01  1.8223E+00  1.0544E+00  2.8767E+00
  6.5900E-01  1.8259E+00  1.0532E+00  2.8791E+00
  6.6000E-01  1.8292E+00  1.0521E+00  2.8813E+00
  6.6100E-01  1.8324E+00  1.0510E+00  2.8834E+00
  6.6200E-01  1.8355E+00  1.0499E+00  2.8854E+00
  6.6300E-01  1.8384E+00  1.0487E+00  2.8871E+00
  6.6400E-01  1.8411E+00  1.0476E+00  2.8887E+00
  6.6500E-01  1.8437E+00  1.0464E+00  2.8901E+00
  6.6600E-01  1.8461E+00  1.0452E+00  2.8914E+00
  6.6700E-01  1.8483E+00  1.0440E+00  2.8924E+00
  6.6800E-01  1.8504E+00  1.0428E+00  2.8932E+00
  6.6900E-01  1.8522E+00  1.0416E+00  2.8938E+00
  6.7000E-01  1.8531E+00  1.0405E+00  2.8936E+00
  6.7100E-01  1.8532E+00  1.0395E+00  2.8926E+00
  6.7200E-01  1.8528E+00  1.0384E+00  2.8912E+00
  6.7300E-01  1.8520E+00  1.0373E+00  2.8893E+00
  6.7400E-01  1.8508E+00  1.0362E+00  2.8870E+00
  6.7500E-01  1.8490E+00  1.0351E+00  2.8842E+00
  6.7600E-01  1.8468E+00  1.0340E+00  2.8809E+00
  6.7700E-01  1.8442E+00  1.0329E+00  2.8771E+00
  6.7800E-01  1.8410E+00  1.0318E+00  2.8727E+00
  6.7900E-01  1.8372E+00  1.0306E+00  2.8679E+00
  6.8000E-01  1.8330E+00  1.0295E+00  2.8625E+00
  6.8100E-01  1.8247E+00  1.0284E+00  2.8531E+00
  6.8200E-01  1.8144E+00  1.0274E+00  2.8418E+00
  6.8300E-01  1.8030E+00  1.0264E+00  2.8294E+00
  6.8400E-01  1.7903E+00  1.0254E+00  2.8157E+00
  6.8500E-01  1.7764E+00  1.0243E+00  2.8007E+00
  6.8600E-01  1.7613E+00  1.0233E+00  2.7846E+00
  6.8700E-01  1.7450E+00  1.0222E+00  2.7671E+00
  6.8800E-01  1.7274E+00  1.0211E+00  2.7485E+00
  6.8900E-01  1.7086E+00  1.0200E+00  2.7286E+00
  6.9000E-01  1.6885E+00  1.0189E+00  2.7074E+00
  6.9100E-01  1.6660E+00  1.0086E+00  2.6746E+00
  6.9200E-01  1.6057E+00  1.0137E+00  2.6194E+00
  6.9300E-01  1.5576E+00  1.0069E+00  2.5645E+00
  6.9400E-01  1.5103E+00  1.0082E+00  2.5185E+00
  6.9500E-01  1.4266E+00  1.0138E+00  2.4404E+00
  6.9600E-01  1.3527E+00  1.0079E+00  2.3606E+00
  6.9700E-01  1.2544E+00  1.0093E+00  2.2636E+00
  6.9800E-01  1.1468E+00  1.0071E+00  2.1539E+00
  6.9900E-01  1.0118E+00  1.0087E+00  2.0205E+00
  7.0000E-01  8.5645E-01  1.0047E+00  1.8612E+00
  7.0100E-01  6.9797E-01  1.0156E+00  1.7136E+00
  7.0200E-01  5.3459E-01  1.0117E+00  1.5463E+00
  7.0300E-01  4.8826E-01  1.0268E+00  1.5151E+00
  7.0400E-01  7.1812E-01  1.0490E+00  1.7671E+00
  7.0500E-01  1.3904E+00  1.1049E+00  2.4954E+00
  7.0600E-01  1.2877E+00  1.2289E+00  2.5166E+00
  7.0700E-01  1.2092E+00  1.2407E+00  2.4499E+00
  7.0800E-01  1.2386E+00  1.2481E+00  2.4867E+00
  7.0900E-01  1.2484E+00  1.2457E+00  2.4941E+00
  7.1000E-01  1.2673E+00  1.2387E+00  2.5060E+00
  7.1100E-01  1.2799E+00  1.2327E+00  2.5126E+00
  7.1200E-01  1.2982E+00  1.2254E+00  2.5236E+00
  7.1300E-01  1.3313E+00  1.2129E+00  2.5442E+00
  7.1400E-01  1.3612E+00  1.2044E+00  2.5656E+00
  7.1500E-01  1.3801E+00  1.1992E+00  2.5793E+00
  7.1600E-01  1.4120E+00  1.1894E+00  2.6014E+00
  7.1700E-01  1.4240E+00  1.1801E+00  2.6040E+00
  7.1800E-01  1.3076E+00  1.1882E+00  2.4958E+00
  7.1900E-01  1.1420E+00  1.2192E+00  2.3612E+00
  7.2000E-01  1.2380E+00  1.2301E+00  2.4682E+00
  7.2100E-01  1.2338E+00  1.2353E+00  2.4691E+00
  7.2200E-01  1.2732E+00  1.2319E+00  2.5051E+00
  7.2300E-01  1.3090E+00  1.2213E+00  2.5304E+00
  7.2400E-01  1.3475E+00  1.2074E+00  2.5549E+00
  7.2500E-01  1.3826E+00  1.1966E+00  2.5792E+00
  7.2600E-01  1.4080E+00  1.1901E+00  2.5981E+00
  7.2700E-01  1.4180E+00  1.1878E+00  2.6057E+00
  7.2800E-01  1.4233E+00  1.1863E+00  2.6097E+00
  7.2900E-01  1.4320E+00  1.1836E+00  2.6156E+00
  7.3000E-01  1.4405E+00  1.1805E+00  2.6210E+00
  7.3100E-01  1.4309E+00  1.1818E+00  2.6127E+00
  7.3200E-01  1.4187E+00  1.1830E+00  2.6017E+00
  7.3300E-01  1.3972E+00  1.1879E+00  2.5850E+00
  7.3400E-01  1.3806E+00  1.1909E+00  2.5715E+00
  7.3500E-01  1.3678E+00  1.1937E+00  2.5616E+00
  7.3600E-01  1.3561E+00  1.1965E+00  2.5526E+00
  7.3700E-01  1.3468E+00  1.1985E+00  2.5453E+00
  7.3800E-01  1.3370E+00  1.2011E+00  2.5381E+00
  7.3900E-01  1.3307E+00  1.2029E+00  2.5336E+00
  7.4000E-01  1.3240E+00  1.2049E+00  2.5289E+00
  7.4100E-01  1.3209E+00  1.2064E+00  2.5272E+00
  7.4200E-01  1.3185E+00  1.2075E+00  2.5260E+00
  7.4300E-01  1.3155E+00  1.2091E+00  2.5246E+00
  7.4400E-01  1.3139E+00  1.2100E+00  2.5238E+00
  7.4500E-01  1.3152E+00  1.2105E+00  2.5257E+00
  7.4600E-01  1.3163E+00  1.2109E+00  2.5272E+00
  7.4700E-01  1.3169E+00  1.2112E+00  2.5282E+00
  7.4800E-01  1.3199E+00  1.2112E+00  2.5311E+00
  7.4900E-01  1.3206E+00  1.2113E+00  2.5319E+00
  7.5000E-01  1.3234E+00  1.2110E+00  2.5344E+00
  7.5100E-01  1.3252E+00  1.2108E+00  2.5360E+00
  7.5200E-01  1.3270E+00  1.2105E+00  2.5375E+00
  7.5300E-01  1.3287E+00  1.2103E+00  2.5390E+00
  7.5400E-01  1.3304E+00  1.2100E+00  2.5405E+00
  7.5500E-01  1.3322E+00  1.2098E+00  2.5419E+00
  7.5600E-01  1.3339E+00  1.2095E+00  2.5434E+00
  7.5700E-01  1.3356E+00  1.2092E+00  2.5448E+00
  7.5800E-01  1.3373E+00  1.2090E+00  2.5463E+00
  7.5900E-01  1.3390E+00  1.2087E+00  2.5477E+00
  7.6000E-01  1.3406E+00  1.2084E+00  2.5491E+00
  7.6100E-01  1.3423E+00  1.2082E+00  2.5504E+00
  7.6200E-01  1.3435E+00  1.2079E+00  2.5514E+00
  7.6300E-01  1.3448E+00  1.2077E+00  2.5524E+00
  7.6400E-01  1.3460E+00  1.2074E+00  2.5534E+00
  7.6500E-01  1.3473E+00  1.2071E+00  2.5544E+00
  7.6600E-01  1.3485E+00  1.2069E+00  2.5554E+00
  7.6700E-01  1.3498E+00  1.2066E+00  2.5564E+00
  7.6800E-01  1.3511E+00  1.2063E+00  2.5574E+00
  7.6900E-01  1.3523E+00  1.2060E+00  2.5584E+00
  7.7000E-01  1.3536E+00  1.2058E+00  2.5594E+00
  7.7100E-01  1.3549E+00  1.2055E+00  2.5604E+00
  7.7200E-01  1.3562E+00  1.2052E+00  2.5614E+00
  7.7300E-01  1.3574E+00  1.2049E+00  2.5623E+00
  7.7400E-01  1.3586E+00  1.2046E+00  2.5632E+00
  7.7500E-01  1.3597E+00  1.2044E+00  2.5641E+00
  7.7600E-01  1.3608E+00  1.2041E+00  2.5649E+00
  7.7700E-01  1.3619E+00  1.2038E+00  2.5657E+00
  7.7800E-01  1.3630E+00  1.2035E+00  2.5665E+00
  7.7900E-01  1.3641E+00  1.2032E+00  2.5674E+00
  7.8000E-01  1.3653E+00  1.2030E+00  2.5682E+00
  7.8100E-01  1.3664E+00  1.2027E+00  2.5691E+00
  7.8200E-01  1.3676E+00  1.2024E+00  2.5699E+00
  7.8300E-01  1.3687E+00  1.2021E+00  2.5708E+00
  7.8400E-01  1.3699E+00  1.2018E+00  2.5716E+00
  7.8500E-01  1.3710E+00  1.2015E+00  2.5725E+00
  7.8600E-01  1.3722E+00  1.2012E+00  2.5734E+00
  7.8700E-01  1.3732E+00  1.2009E+00  2.5741E+00
  7.8800E-01  1.3742E+00  1.2006E+00  2.5748E+00
  7.8900E-01  1.3752E+00  1.2003E+00  2.5755E+00
  7.9000E-01  1.3763E+00  1.2000E+00  2.5763E+00
  7.9100E-01  1.3773E+00  1.1998E+00  2.5770E+00
  7.9200E-01  1.3783E+00  1.1995E+00  2.5778E+00
  7.9300E-01  1.3794E+00  1.1992E+00  2.5786E+00
  7.9400E-01  1.3805E+00  1.1989E+00  2.5793E+00
  7.9500E-01  1.3815E+00  1.1986E+00  2.5801E+00
  7.9600E-01  1.3826E+00  1.1983E+00  2.5809E+00
  7.9700E-01  1.3837E+00  1.1979E+00  2.5817E+00
  7.9800E-01  1.3849E+00  1.1976E+00  2.5825E+00
  7.9900E-01  1.3857E+00  1.1974E+00  2.5831E+00
