# GGADT v1.2.1
# =-=-=
# Total cross sections as a function of energy
# -----------------------------------
# Parameter values
# -----------------------------------
# a_eff:                               4.50000E-01 micron
# ephot_min:                           6.00000E-01kiloelectron-vo
# ephot_max:                           8.00000E-01kiloelectron-vo
# nephots:                                     200
# Material file:                                   hematite
# geometry:                                        ellipsoid
# angle_mode:                                      file
# angle_file:                                      angles
# ngrain:                                      128
# norientations:                                 1
# grain-axis-z:                        5.03410E-01 micron
# grain-axis-y:                        5.03410E-01 micron
# grain-axis-z:                        3.59579E-01 micron
# grid-width:                          1.00682E+00 micron
# axes-convention:                                 ddscat
# parameter_file_name:                             large_params_set.ini
# -----------------------------------
 # [ephot (kiloelectron-volt)] [Q_sca] [Q_abs] [Q_ext]
  6.0000E-01  1.8881E+00  9.9696E-01  2.8851E+00
  6.0100E-01  1.8899E+00  9.9567E-01  2.8856E+00
  6.0200E-01  1.8917E+00  9.9437E-01  2.8861E+00
  6.0300E-01  1.8936E+00  9.9306E-01  2.8866E+00
  6.0400E-01  1.8954E+00  9.9173E-01  2.8871E+00
  6.0500E-01  1.8972E+00  9.9038E-01  2.8876E+00
  6.0600E-01  1.8991E+00  9.8902E-01  2.8881E+00
  6.0700E-01  1.9009E+00  9.8765E-01  2.8886E+00
  6.0800E-01  1.9027E+00  9.8627E-01  2.8890E+00
  6.0900E-01  1.9039E+00  9.8500E-01  2.8889E+00
  6.1000E-01  1.9052E+00  9.8371E-01  2.8889E+00
  6.1100E-01  1.9064E+00  9.8241E-01  2.8888E+00
  6.1200E-01  1.9076E+00  9.8109E-01  2.8887E+00
  6.1300E-01  1.9088E+00  9.7976E-01  2.8886E+00
  6.1400E-01  1.9100E+00  9.7842E-01  2.8885E+00
  6.1500E-01  1.9112E+00  9.7706E-01  2.8883E+00
  6.1600E-01  1.9124E+00  9.7569E-01  2.8881E+00
  6.1700E-01  1.9136E+00  9.7430E-01  2.8879E+00
  6.1800E-01  1.9146E+00  9.7293E-01  2.8875E+00
  6.1900E-01  1.9151E+00  9.7164E-01  2.8868E+00
  6.2000E-01  1.9157E+00  9.7034E-01  2.8860E+00
  6.2100E-01  1.9162E+00  9.6902E-01  2.8852E+00
  6.2200E-01  1.9166E+00  9.6769E-01  2.8843E+00
  6.2300E-01  1.9171E+00  9.6635E-01  2.8834E+00
  6.2400E-01  1.9175E+00  9.6499E-01  2.8825E+00
  6.2500E-01  1.9179E+00  9.6362E-01  2.8815E+00
  6.2600E-01  1.9183E+00  9.6223E-01  2.8805E+00
  6.2700E-01  1.9186E+00  9.6083E-01  2.8795E+00
  6.2800E-01  1.9188E+00  9.5944E-01  2.8783E+00
  6.2900E-01  1.9185E+00  9.5811E-01  2.8766E+00
  6.3000E-01  1.9182E+00  9.5676E-01  2.8749E+00
  6.3100E-01  1.9178E+00  9.5540E-01  2.8732E+00
  6.3200E-01  1.9174E+00  9.5403E-01  2.8714E+00
  6.3300E-01  1.9169E+00  9.5264E-01  2.8696E+00
  6.3400E-01  1.9164E+00  9.5123E-01  2.8676E+00
  6.3500E-01  1.9158E+00  9.4981E-01  2.8657E+00
  6.3600E-01  1.9152E+00  9.4838E-01  2.8636E+00
  6.3700E-01  1.9146E+00  9.4693E-01  2.8615E+00
  6.3800E-01  1.9138E+00  9.4548E-01  2.8593E+00
  6.3900E-01  1.9123E+00  9.4409E-01  2.8564E+00
  6.4000E-01  1.9107E+00  9.4268E-01  2.8534E+00
  6.4100E-01  1.9091E+00  9.4126E-01  2.8503E+00
  6.4200E-01  1.9074E+00  9.3982E-01  2.8472E+00
  6.4300E-01  1.9056E+00  9.3837E-01  2.8439E+00
  6.4400E-01  1.9037E+00  9.3690E-01  2.8406E+00
  6.4500E-01  1.9018E+00  9.3542E-01  2.8372E+00
  6.4600E-01  1.8998E+00  9.3393E-01  2.8337E+00
  6.4700E-01  1.8977E+00  9.3241E-01  2.8301E+00
  6.4800E-01  1.8955E+00  9.3089E-01  2.8264E+00
  6.4900E-01  1.8923E+00  9.2943E-01  2.8217E+00
  6.5000E-01  1.8887E+00  9.2799E-01  2.8167E+00
  6.5100E-01  1.8850E+00  9.2653E-01  2.8116E+00
  6.5200E-01  1.8812E+00  9.2505E-01  2.8063E+00
  6.5300E-01  1.8773E+00  9.2356E-01  2.8009E+00
  6.5400E-01  1.8733E+00  9.2206E-01  2.7953E+00
  6.5500E-01  1.8691E+00  9.2054E-01  2.7896E+00
  6.5600E-01  1.8648E+00  9.1901E-01  2.7838E+00
  6.5700E-01  1.8604E+00  9.1746E-01  2.7779E+00
  6.5800E-01  1.8559E+00  9.1589E-01  2.7718E+00
  6.5900E-01  1.8506E+00  9.1436E-01  2.7650E+00
  6.6000E-01  1.8437E+00  9.1291E-01  2.7566E+00
  6.6100E-01  1.8365E+00  9.1146E-01  2.7480E+00
  6.6200E-01  1.8292E+00  9.0999E-01  2.7392E+00
  6.6300E-01  1.8217E+00  9.0851E-01  2.7302E+00
  6.6400E-01  1.8139E+00  9.0701E-01  2.7210E+00
  6.6500E-01  1.8060E+00  9.0550E-01  2.7115E+00
  6.6600E-01  1.7979E+00  9.0397E-01  2.7019E+00
  6.6700E-01  1.7897E+00  9.0243E-01  2.6921E+00
  6.6800E-01  1.7812E+00  9.0087E-01  2.6820E+00
  6.6900E-01  1.7725E+00  8.9930E-01  2.6718E+00
  6.7000E-01  1.7608E+00  8.9788E-01  2.6586E+00
  6.7100E-01  1.7471E+00  8.9653E-01  2.6437E+00
  6.7200E-01  1.7332E+00  8.9517E-01  2.6283E+00
  6.7300E-01  1.7189E+00  8.9380E-01  2.6127E+00
  6.7400E-01  1.7043E+00  8.9241E-01  2.5967E+00
  6.7500E-01  1.6894E+00  8.9101E-01  2.5804E+00
  6.7600E-01  1.6742E+00  8.8960E-01  2.5638E+00
  6.7700E-01  1.6587E+00  8.8818E-01  2.5469E+00
  6.7800E-01  1.6429E+00  8.8675E-01  2.5296E+00
  6.7900E-01  1.6268E+00  8.8530E-01  2.5121E+00
  6.8000E-01  1.6103E+00  8.8384E-01  2.4942E+00
  6.8100E-01  1.5861E+00  8.8253E-01  2.4687E+00
  6.8200E-01  1.5597E+00  8.8126E-01  2.4409E+00
  6.8300E-01  1.5327E+00  8.7997E-01  2.4127E+00
  6.8400E-01  1.5052E+00  8.7868E-01  2.3839E+00
  6.8500E-01  1.4773E+00  8.7737E-01  2.3546E+00
  6.8600E-01  1.4489E+00  8.7605E-01  2.3249E+00
  6.8700E-01  1.4201E+00  8.7472E-01  2.2948E+00
  6.8800E-01  1.3909E+00  8.7338E-01  2.2643E+00
  6.8900E-01  1.3613E+00  8.7203E-01  2.2334E+00
  6.9000E-01  1.3314E+00  8.7066E-01  2.2021E+00
  6.9100E-01  1.2841E+00  8.5799E-01  2.1421E+00
  6.9200E-01  1.2187E+00  8.6418E-01  2.0829E+00
  6.9300E-01  1.1554E+00  8.5585E-01  2.0113E+00
  6.9400E-01  1.1065E+00  8.5749E-01  1.9640E+00
  6.9500E-01  1.0275E+00  8.6430E-01  1.8918E+00
  6.9600E-01  9.5208E-01  8.5709E-01  1.8092E+00
  6.9700E-01  8.6514E-01  8.5877E-01  1.7239E+00
  6.9800E-01  7.7313E-01  8.5614E-01  1.6293E+00
  6.9900E-01  6.6681E-01  8.5805E-01  1.5249E+00
  7.0000E-01  5.4935E-01  8.5323E-01  1.4026E+00
  7.0100E-01  4.4049E-01  8.6658E-01  1.3071E+00
  7.0200E-01  3.2949E-01  8.6178E-01  1.1913E+00
  7.0300E-01  3.0168E-01  8.8054E-01  1.1822E+00
  7.0400E-01  4.6396E-01  9.0887E-01  1.3728E+00
  7.0500E-01  1.1005E+00  9.8556E-01  2.0860E+00
  7.0600E-01  1.3461E+00  1.2029E+00  2.5490E+00
  7.0700E-01  1.1550E+00  1.2291E+00  2.3842E+00
  7.0800E-01  1.2241E+00  1.2462E+00  2.4703E+00
  7.0900E-01  1.2457E+00  1.2405E+00  2.4862E+00
  7.1000E-01  1.2933E+00  1.2247E+00  2.5180E+00
  7.1100E-01  1.3306E+00  1.2112E+00  2.5418E+00
  7.1200E-01  1.3848E+00  1.1953E+00  2.5801E+00
  7.1300E-01  1.4627E+00  1.1689E+00  2.6317E+00
  7.1400E-01  1.4814E+00  1.1519E+00  2.6332E+00
  7.1500E-01  1.4744E+00  1.1417E+00  2.6161E+00
  7.1600E-01  1.4735E+00  1.1232E+00  2.5967E+00
  7.1700E-01  1.3951E+00  1.1061E+00  2.5012E+00
  7.1800E-01  1.1710E+00  1.1209E+00  2.2919E+00
  7.1900E-01  9.9612E-01  1.1820E+00  2.1781E+00
  7.2000E-01  1.1912E+00  1.2056E+00  2.3968E+00
  7.2100E-01  1.1977E+00  1.2169E+00  2.4145E+00
  7.2200E-01  1.2988E+00  1.2095E+00  2.5082E+00
  7.2300E-01  1.4031E+00  1.1866E+00  2.5897E+00
  7.2400E-01  1.4911E+00  1.1579E+00  2.6489E+00
  7.2500E-01  1.5356E+00  1.1367E+00  2.6722E+00
  7.2600E-01  1.5384E+00  1.1245E+00  2.6628E+00
  7.2700E-01  1.5237E+00  1.1201E+00  2.6438E+00
  7.2800E-01  1.5083E+00  1.1175E+00  2.6258E+00
  7.2900E-01  1.4984E+00  1.1125E+00  2.6109E+00
  7.3000E-01  1.4842E+00  1.1069E+00  2.5911E+00
  7.3100E-01  1.4442E+00  1.1092E+00  2.5534E+00
  7.3200E-01  1.4042E+00  1.1114E+00  2.5156E+00
  7.3300E-01  1.3717E+00  1.1203E+00  2.4920E+00
  7.3400E-01  1.3430E+00  1.1260E+00  2.4690E+00
  7.3500E-01  1.3257E+00  1.1313E+00  2.4569E+00
  7.3600E-01  1.3109E+00  1.1365E+00  2.4473E+00
  7.3700E-01  1.2989E+00  1.1405E+00  2.4394E+00
  7.3800E-01  1.2886E+00  1.1454E+00  2.4340E+00
  7.3900E-01  1.2829E+00  1.1489E+00  2.4317E+00
  7.4000E-01  1.2775E+00  1.1529E+00  2.4303E+00
  7.4100E-01  1.2782E+00  1.1558E+00  2.4340E+00
  7.4200E-01  1.2789E+00  1.1581E+00  2.4370E+00
  7.4300E-01  1.2805E+00  1.1612E+00  2.4416E+00
  7.4400E-01  1.2818E+00  1.1631E+00  2.4448E+00
  7.4500E-01  1.2892E+00  1.1641E+00  2.4533E+00
  7.4600E-01  1.2953E+00  1.1650E+00  2.4603E+00
  7.4700E-01  1.2996E+00  1.1656E+00  2.4652E+00
  7.4800E-01  1.3087E+00  1.1654E+00  2.4741E+00
  7.4900E-01  1.3124E+00  1.1658E+00  2.4783E+00
  7.5000E-01  1.3194E+00  1.1651E+00  2.4845E+00
  7.5100E-01  1.3236E+00  1.1646E+00  2.4882E+00
  7.5200E-01  1.3278E+00  1.1641E+00  2.4919E+00
  7.5300E-01  1.3320E+00  1.1636E+00  2.4957E+00
  7.5400E-01  1.3363E+00  1.1631E+00  2.4994E+00
  7.5500E-01  1.3406E+00  1.1626E+00  2.5032E+00
  7.5600E-01  1.3449E+00  1.1621E+00  2.5070E+00
  7.5700E-01  1.3493E+00  1.1616E+00  2.5108E+00
  7.5800E-01  1.3537E+00  1.1610E+00  2.5147E+00
  7.5900E-01  1.3581E+00  1.1605E+00  2.5185E+00
  7.6000E-01  1.3625E+00  1.1599E+00  2.5224E+00
  7.6100E-01  1.3669E+00  1.1594E+00  2.5263E+00
  7.6200E-01  1.3698E+00  1.1589E+00  2.5287E+00
  7.6300E-01  1.3727E+00  1.1584E+00  2.5310E+00
  7.6400E-01  1.3755E+00  1.1578E+00  2.5334E+00
  7.6500E-01  1.3784E+00  1.1573E+00  2.5357E+00
  7.6600E-01  1.3813E+00  1.1568E+00  2.5381E+00
  7.6700E-01  1.3843E+00  1.1562E+00  2.5405E+00
  7.6800E-01  1.3872E+00  1.1557E+00  2.5429E+00
  7.6900E-01  1.3902E+00  1.1552E+00  2.5454E+00
  7.7000E-01  1.3932E+00  1.1546E+00  2.5478E+00
  7.7100E-01  1.3962E+00  1.1540E+00  2.5503E+00
  7.7200E-01  1.3993E+00  1.1535E+00  2.5528E+00
  7.7300E-01  1.4024E+00  1.1529E+00  2.5553E+00
  7.7400E-01  1.4050E+00  1.1523E+00  2.5573E+00
  7.7500E-01  1.4073E+00  1.1518E+00  2.5591E+00
  7.7600E-01  1.4096E+00  1.1513E+00  2.5608E+00
  7.7700E-01  1.4119E+00  1.1507E+00  2.5626E+00
  7.7800E-01  1.4143E+00  1.1502E+00  2.5644E+00
  7.7900E-01  1.4167E+00  1.1496E+00  2.5663E+00
  7.8000E-01  1.4191E+00  1.1491E+00  2.5681E+00
  7.8100E-01  1.4215E+00  1.1485E+00  2.5700E+00
  7.8200E-01  1.4239E+00  1.1479E+00  2.5718E+00
  7.8300E-01  1.4264E+00  1.1473E+00  2.5737E+00
  7.8400E-01  1.4289E+00  1.1467E+00  2.5756E+00
  7.8500E-01  1.4314E+00  1.1461E+00  2.5775E+00
  7.8600E-01  1.4338E+00  1.1455E+00  2.5794E+00
  7.8700E-01  1.4356E+00  1.1450E+00  2.5806E+00
  7.8800E-01  1.4374E+00  1.1445E+00  2.5818E+00
  7.8900E-01  1.4392E+00  1.1439E+00  2.5831E+00
  7.9000E-01  1.4410E+00  1.1434E+00  2.5844E+00
  7.9100E-01  1.4428E+00  1.1428E+00  2.5856E+00
  7.9200E-01  1.4447E+00  1.1422E+00  2.5869E+00
  7.9300E-01  1.4466E+00  1.1417E+00  2.5882E+00
  7.9400E-01  1.4485E+00  1.1411E+00  2.5895E+00
  7.9500E-01  1.4504E+00  1.1405E+00  2.5909E+00
  7.9600E-01  1.4523E+00  1.1399E+00  2.5922E+00
  7.9700E-01  1.4542E+00  1.1393E+00  2.5935E+00
  7.9800E-01  1.4562E+00  1.1387E+00  2.5949E+00
  7.9900E-01  1.4577E+00  1.1382E+00  2.5959E+00
