# GGADT v1.2.1
# =-=-=
# Total cross sections as a function of energy
# -----------------------------------
# Parameter values
# -----------------------------------
# a_eff:                               7.80000E-01 micron
# ephot_min:                           6.00000E-01kiloelectron-vo
# ephot_max:                           8.00000E-01kiloelectron-vo
# nephots:                                     200
# Material file:                                   hematite
# geometry:                                        ellipsoid
# angle_mode:                                      random
# ngrain:                                      128
# norientations:                                 1
# grain-axis-z:                        8.72577E-01 micron
# grain-axis-y:                        8.72577E-01 micron
# grain-axis-z:                        6.23270E-01 micron
# grid-width:                          1.74515E+00 micron
# axes-convention:                                 ddscat
# parameter_file_name:                             large_params_random.ini
# -----------------------------------
 # [ephot (kiloelectron-volt)] [Q_sca] [Q_abs] [Q_ext]
  6.0000E-01  9.9354E-01  8.8515E-01  1.8787E+00
  6.0100E-01  9.9372E-01  8.8483E-01  1.8785E+00
  6.0200E-01  9.9390E-01  8.8449E-01  1.8784E+00
  6.0300E-01  9.9408E-01  8.8415E-01  1.8782E+00
  6.0400E-01  9.9427E-01  8.8381E-01  1.8781E+00
  6.0500E-01  9.9445E-01  8.8346E-01  1.8779E+00
  6.0600E-01  9.9464E-01  8.8311E-01  1.8778E+00
  6.0700E-01  9.9484E-01  8.8275E-01  1.8776E+00
  6.0800E-01  9.9503E-01  8.8239E-01  1.8774E+00
  6.0900E-01  9.9520E-01  8.8205E-01  1.8773E+00
  6.1000E-01  9.9538E-01  8.8171E-01  1.8771E+00
  6.1100E-01  9.9555E-01  8.8137E-01  1.8769E+00
  6.1200E-01  9.9574E-01  8.8102E-01  1.8768E+00
  6.1300E-01  9.9593E-01  8.8066E-01  1.8766E+00
  6.1400E-01  9.9612E-01  8.8030E-01  1.8764E+00
  6.1500E-01  9.9632E-01  8.7993E-01  1.8763E+00
  6.1600E-01  9.9653E-01  8.7956E-01  1.8761E+00
  6.1700E-01  9.9674E-01  8.7918E-01  1.8759E+00
  6.1800E-01  9.9696E-01  8.7881E-01  1.8758E+00
  6.1900E-01  9.9716E-01  8.7846E-01  1.8756E+00
  6.2000E-01  9.9738E-01  8.7810E-01  1.8755E+00
  6.2100E-01  9.9761E-01  8.7773E-01  1.8753E+00
  6.2200E-01  9.9784E-01  8.7737E-01  1.8752E+00
  6.2300E-01  9.9809E-01  8.7699E-01  1.8751E+00
  6.2400E-01  9.9835E-01  8.7661E-01  1.8750E+00
  6.2500E-01  9.9862E-01  8.7623E-01  1.8748E+00
  6.2600E-01  9.9890E-01  8.7584E-01  1.8747E+00
  6.2700E-01  9.9920E-01  8.7544E-01  1.8746E+00
  6.2800E-01  9.9951E-01  8.7504E-01  1.8746E+00
  6.2900E-01  9.9983E-01  8.7466E-01  1.8745E+00
  6.3000E-01  1.0002E+00  8.7428E-01  1.8745E+00
  6.3100E-01  1.0005E+00  8.7389E-01  1.8744E+00
  6.3200E-01  1.0009E+00  8.7349E-01  1.8744E+00
  6.3300E-01  1.0013E+00  8.7309E-01  1.8744E+00
  6.3400E-01  1.0017E+00  8.7268E-01  1.8744E+00
  6.3500E-01  1.0022E+00  8.7226E-01  1.8745E+00
  6.3600E-01  1.0027E+00  8.7184E-01  1.8745E+00
  6.3700E-01  1.0032E+00  8.7141E-01  1.8746E+00
  6.3800E-01  1.0037E+00  8.7098E-01  1.8747E+00
  6.3900E-01  1.0043E+00  8.7057E-01  1.8748E+00
  6.4000E-01  1.0049E+00  8.7015E-01  1.8750E+00
  6.4100E-01  1.0055E+00  8.6972E-01  1.8752E+00
  6.4200E-01  1.0062E+00  8.6929E-01  1.8755E+00
  6.4300E-01  1.0069E+00  8.6885E-01  1.8758E+00
  6.4400E-01  1.0077E+00  8.6841E-01  1.8761E+00
  6.4500E-01  1.0085E+00  8.6795E-01  1.8765E+00
  6.4600E-01  1.0094E+00  8.6750E-01  1.8769E+00
  6.4700E-01  1.0103E+00  8.6703E-01  1.8773E+00
  6.4800E-01  1.0112E+00  8.6656E-01  1.8778E+00
  6.4900E-01  1.0123E+00  8.6611E-01  1.8784E+00
  6.5000E-01  1.0134E+00  8.6566E-01  1.8791E+00
  6.5100E-01  1.0147E+00  8.6520E-01  1.8799E+00
  6.5200E-01  1.0160E+00  8.6474E-01  1.8807E+00
  6.5300E-01  1.0173E+00  8.6427E-01  1.8816E+00
  6.5400E-01  1.0187E+00  8.6379E-01  1.8825E+00
  6.5500E-01  1.0202E+00  8.6331E-01  1.8836E+00
  6.5600E-01  1.0218E+00  8.6282E-01  1.8846E+00
  6.5700E-01  1.0235E+00  8.6232E-01  1.8858E+00
  6.5800E-01  1.0252E+00  8.6182E-01  1.8870E+00
  6.5900E-01  1.0271E+00  8.6132E-01  1.8884E+00
  6.6000E-01  1.0293E+00  8.6085E-01  1.8902E+00
  6.6100E-01  1.0317E+00  8.6038E-01  1.8920E+00
  6.6200E-01  1.0341E+00  8.5989E-01  1.8940E+00
  6.6300E-01  1.0367E+00  8.5940E-01  1.8961E+00
  6.6400E-01  1.0393E+00  8.5891E-01  1.8982E+00
  6.6500E-01  1.0421E+00  8.5841E-01  1.9005E+00
  6.6600E-01  1.0450E+00  8.5790E-01  1.9029E+00
  6.6700E-01  1.0480E+00  8.5738E-01  1.9054E+00
  6.6800E-01  1.0512E+00  8.5686E-01  1.9080E+00
  6.6900E-01  1.0544E+00  8.5633E-01  1.9108E+00
  6.7000E-01  1.0584E+00  8.5584E-01  1.9142E+00
  6.7100E-01  1.0627E+00  8.5538E-01  1.9181E+00
  6.7200E-01  1.0673E+00  8.5492E-01  1.9222E+00
  6.7300E-01  1.0720E+00  8.5445E-01  1.9264E+00
  6.7400E-01  1.0768E+00  8.5397E-01  1.9308E+00
  6.7500E-01  1.0818E+00  8.5349E-01  1.9353E+00
  6.7600E-01  1.0868E+00  8.5300E-01  1.9398E+00
  6.7700E-01  1.0920E+00  8.5250E-01  1.9445E+00
  6.7800E-01  1.0973E+00  8.5200E-01  1.9493E+00
  6.7900E-01  1.1026E+00  8.5149E-01  1.9541E+00
  6.8000E-01  1.1080E+00  8.5098E-01  1.9590E+00
  6.8100E-01  1.1151E+00  8.5052E-01  1.9656E+00
  6.8200E-01  1.1224E+00  8.5006E-01  1.9725E+00
  6.8300E-01  1.1296E+00  8.4961E-01  1.9793E+00
  6.8400E-01  1.1367E+00  8.4914E-01  1.9858E+00
  6.8500E-01  1.1435E+00  8.4867E-01  1.9922E+00
  6.8600E-01  1.1499E+00  8.4820E-01  1.9981E+00
  6.8700E-01  1.1560E+00  8.4772E-01  2.0037E+00
  6.8800E-01  1.1616E+00  8.4723E-01  2.0088E+00
  6.8900E-01  1.1666E+00  8.4674E-01  2.0134E+00
  6.9000E-01  1.1710E+00  8.4624E-01  2.0173E+00
  6.9100E-01  1.1886E+00  8.4152E-01  2.0301E+00
  6.9200E-01  1.1820E+00  8.4384E-01  2.0259E+00
  6.9300E-01  1.1880E+00  8.4070E-01  2.0287E+00
  6.9400E-01  1.1802E+00  8.4133E-01  2.0215E+00
  6.9500E-01  1.1571E+00  8.4389E-01  2.0010E+00
  6.9600E-01  1.1424E+00  8.4117E-01  1.9835E+00
  6.9700E-01  1.1046E+00  8.4181E-01  1.9464E+00
  6.9800E-01  1.0565E+00  8.4081E-01  1.8974E+00
  6.9900E-01  9.7901E-01  8.4154E-01  1.8205E+00
  7.0000E-01  8.7581E-01  8.3970E-01  1.7155E+00
  7.0100E-01  7.4485E-01  8.4473E-01  1.5896E+00
  7.0200E-01  5.9932E-01  8.4295E-01  1.4423E+00
  7.0300E-01  5.4986E-01  8.4981E-01  1.3997E+00
  7.0400E-01  7.4648E-01  8.5952E-01  1.6060E+00
  7.0500E-01  1.0498E+00  8.8220E-01  1.9320E+00
  7.0600E-01  9.4138E-01  9.2421E-01  1.8656E+00
  7.0700E-01  9.1788E-01  9.2798E-01  1.8459E+00
  7.0800E-01  9.2722E-01  9.3046E-01  1.8577E+00
  7.0900E-01  9.3018E-01  9.2963E-01  1.8598E+00
  7.1000E-01  9.3586E-01  9.2734E-01  1.8632E+00
  7.1100E-01  9.3957E-01  9.2541E-01  1.8650E+00
  7.1200E-01  9.4511E-01  9.2311E-01  1.8682E+00
  7.1300E-01  9.5339E-01  9.1919E-01  1.8726E+00
  7.1400E-01  9.5748E-01  9.1652E-01  1.8740E+00
  7.1500E-01  9.5973E-01  9.1488E-01  1.8746E+00
  7.1600E-01  9.6523E-01  9.1175E-01  1.8770E+00
  7.1700E-01  9.7290E-01  9.0872E-01  1.8816E+00
  7.1800E-01  9.5846E-01  9.1136E-01  1.8698E+00
  7.1900E-01  9.0064E-01  9.2115E-01  1.8218E+00
  7.2000E-01  9.2652E-01  9.2460E-01  1.8511E+00
  7.2100E-01  9.2518E-01  9.2622E-01  1.8514E+00
  7.2200E-01  9.3667E-01  9.2516E-01  1.8618E+00
  7.2300E-01  9.4736E-01  9.2184E-01  1.8692E+00
  7.2400E-01  9.5664E-01  9.1747E-01  1.8741E+00
  7.2500E-01  9.6237E-01  9.1404E-01  1.8764E+00
  7.2600E-01  9.6515E-01  9.1198E-01  1.8771E+00
  7.2700E-01  9.6615E-01  9.1123E-01  1.8774E+00
  7.2800E-01  9.6694E-01  9.1077E-01  1.8777E+00
  7.2900E-01  9.6865E-01  9.0987E-01  1.8785E+00
  7.3000E-01  9.7087E-01  9.0887E-01  1.8797E+00
  7.3100E-01  9.7073E-01  9.0928E-01  1.8800E+00
  7.3200E-01  9.7036E-01  9.0969E-01  1.8800E+00
  7.3300E-01  9.6662E-01  9.1126E-01  1.8779E+00
  7.3400E-01  9.6390E-01  9.1224E-01  1.8761E+00
  7.3500E-01  9.6128E-01  9.1314E-01  1.8744E+00
  7.3600E-01  9.5866E-01  9.1401E-01  1.8727E+00
  7.3700E-01  9.5655E-01  9.1467E-01  1.8712E+00
  7.3800E-01  9.5408E-01  9.1548E-01  1.8696E+00
  7.3900E-01  9.5240E-01  9.1604E-01  1.8684E+00
  7.4000E-01  9.5054E-01  9.1668E-01  1.8672E+00
  7.4100E-01  9.4943E-01  9.1714E-01  1.8666E+00
  7.4200E-01  9.4860E-01  9.1751E-01  1.8661E+00
  7.4300E-01  9.4756E-01  9.1799E-01  1.8655E+00
  7.4400E-01  9.4696E-01  9.1828E-01  1.8652E+00
  7.4500E-01  9.4700E-01  9.1845E-01  1.8654E+00
  7.4600E-01  9.4705E-01  9.1858E-01  1.8656E+00
  7.4700E-01  9.4707E-01  9.1867E-01  1.8657E+00
  7.4800E-01  9.4760E-01  9.1865E-01  1.8662E+00
  7.4900E-01  9.4766E-01  9.1871E-01  1.8664E+00
  7.5000E-01  9.4824E-01  9.1860E-01  1.8668E+00
  7.5100E-01  9.4859E-01  9.1852E-01  1.8671E+00
  7.5200E-01  9.4894E-01  9.1844E-01  1.8674E+00
  7.5300E-01  9.4929E-01  9.1837E-01  1.8677E+00
  7.5400E-01  9.4964E-01  9.1829E-01  1.8679E+00
  7.5500E-01  9.4998E-01  9.1821E-01  1.8682E+00
  7.5600E-01  9.5032E-01  9.1813E-01  1.8685E+00
  7.5700E-01  9.5066E-01  9.1804E-01  1.8687E+00
  7.5800E-01  9.5100E-01  9.1796E-01  1.8690E+00
  7.5900E-01  9.5133E-01  9.1788E-01  1.8692E+00
  7.6000E-01  9.5166E-01  9.1779E-01  1.8695E+00
  7.6100E-01  9.5198E-01  9.1771E-01  1.8697E+00
  7.6200E-01  9.5224E-01  9.1763E-01  1.8699E+00
  7.6300E-01  9.5249E-01  9.1755E-01  1.8700E+00
  7.6400E-01  9.5274E-01  9.1746E-01  1.8702E+00
  7.6500E-01  9.5300E-01  9.1738E-01  1.8704E+00
  7.6600E-01  9.5325E-01  9.1730E-01  1.8705E+00
  7.6700E-01  9.5350E-01  9.1721E-01  1.8707E+00
  7.6800E-01  9.5375E-01  9.1713E-01  1.8709E+00
  7.6900E-01  9.5401E-01  9.1704E-01  1.8710E+00
  7.7000E-01  9.5426E-01  9.1695E-01  1.8712E+00
  7.7100E-01  9.5451E-01  9.1686E-01  1.8714E+00
  7.7200E-01  9.5477E-01  9.1677E-01  1.8715E+00
  7.7300E-01  9.5502E-01  9.1668E-01  1.8717E+00
  7.7400E-01  9.5525E-01  9.1659E-01  1.8718E+00
  7.7500E-01  9.5547E-01  9.1651E-01  1.8720E+00
  7.7600E-01  9.5569E-01  9.1642E-01  1.8721E+00
  7.7700E-01  9.5590E-01  9.1633E-01  1.8722E+00
  7.7800E-01  9.5612E-01  9.1625E-01  1.8724E+00
  7.7900E-01  9.5634E-01  9.1616E-01  1.8725E+00
  7.8000E-01  9.5656E-01  9.1607E-01  1.8726E+00
  7.8100E-01  9.5679E-01  9.1598E-01  1.8728E+00
  7.8200E-01  9.5701E-01  9.1588E-01  1.8729E+00
  7.8300E-01  9.5723E-01  9.1579E-01  1.8730E+00
  7.8400E-01  9.5746E-01  9.1569E-01  1.8731E+00
  7.8500E-01  9.5768E-01  9.1560E-01  1.8733E+00
  7.8600E-01  9.5790E-01  9.1550E-01  1.8734E+00
  7.8700E-01  9.5809E-01  9.1541E-01  1.8735E+00
  7.8800E-01  9.5828E-01  9.1533E-01  1.8736E+00
  7.8900E-01  9.5848E-01  9.1524E-01  1.8737E+00
  7.9000E-01  9.5867E-01  9.1515E-01  1.8738E+00
  7.9100E-01  9.5887E-01  9.1505E-01  1.8739E+00
  7.9200E-01  9.5907E-01  9.1496E-01  1.8740E+00
  7.9300E-01  9.5926E-01  9.1487E-01  1.8741E+00
  7.9400E-01  9.5946E-01  9.1477E-01  1.8742E+00
  7.9500E-01  9.5966E-01  9.1468E-01  1.8743E+00
  7.9600E-01  9.5987E-01  9.1458E-01  1.8744E+00
  7.9700E-01  9.6007E-01  9.1448E-01  1.8745E+00
  7.9800E-01  9.6027E-01  9.1438E-01  1.8747E+00
  7.9900E-01  9.6043E-01  9.1431E-01  1.8747E+00
