# GGADT v1.2.1
# =-=-=
# Total cross sections as a function of energy
# -----------------------------------
# Parameter values
# -----------------------------------
# a_eff:                               3.40000E-01 micron
# ephot_min:                           6.00000E-01kiloelectron-vo
# ephot_max:                           8.00000E-01kiloelectron-vo
# nephots:                                     200
# Material file:                                   hematite
# geometry:                                        ellipsoid
# angle_mode:                                      random
# ngrain:                                      128
# norientations:                                 1
# grain-axis-z:                        3.80354E-01 micron
# grain-axis-y:                        3.80354E-01 micron
# grain-axis-z:                        2.71682E-01 micron
# grid-width:                          7.60708E-01 micron
# axes-convention:                                 ddscat
# parameter_file_name:                             large_params_random.ini
# -----------------------------------
 # [ephot (kiloelectron-volt)] [Q_sca] [Q_abs] [Q_ext]
  6.0000E-01  1.6852E+00  8.6210E-01  2.5473E+00
  6.0100E-01  1.6853E+00  8.6073E-01  2.5461E+00
  6.0200E-01  1.6855E+00  8.5934E-01  2.5448E+00
  6.0300E-01  1.6856E+00  8.5795E-01  2.5436E+00
  6.0400E-01  1.6857E+00  8.5653E-01  2.5423E+00
  6.0500E-01  1.6858E+00  8.5511E-01  2.5409E+00
  6.0600E-01  1.6859E+00  8.5366E-01  2.5396E+00
  6.0700E-01  1.6860E+00  8.5221E-01  2.5382E+00
  6.0800E-01  1.6860E+00  8.5075E-01  2.5367E+00
  6.0900E-01  1.6854E+00  8.4940E-01  2.5348E+00
  6.1000E-01  1.6847E+00  8.4804E-01  2.5327E+00
  6.1100E-01  1.6840E+00  8.4667E-01  2.5307E+00
  6.1200E-01  1.6833E+00  8.4528E-01  2.5286E+00
  6.1300E-01  1.6825E+00  8.4388E-01  2.5264E+00
  6.1400E-01  1.6818E+00  8.4247E-01  2.5243E+00
  6.1500E-01  1.6810E+00  8.4104E-01  2.5221E+00
  6.1600E-01  1.6802E+00  8.3960E-01  2.5198E+00
  6.1700E-01  1.6794E+00  8.3814E-01  2.5175E+00
  6.1800E-01  1.6784E+00  8.3671E-01  2.5151E+00
  6.1900E-01  1.6768E+00  8.3536E-01  2.5122E+00
  6.2000E-01  1.6753E+00  8.3400E-01  2.5093E+00
  6.2100E-01  1.6737E+00  8.3262E-01  2.5063E+00
  6.2200E-01  1.6720E+00  8.3124E-01  2.5033E+00
  6.2300E-01  1.6703E+00  8.2984E-01  2.5002E+00
  6.2400E-01  1.6686E+00  8.2842E-01  2.4971E+00
  6.2500E-01  1.6669E+00  8.2700E-01  2.4939E+00
  6.2600E-01  1.6651E+00  8.2556E-01  2.4907E+00
  6.2700E-01  1.6633E+00  8.2410E-01  2.4874E+00
  6.2800E-01  1.6613E+00  8.2266E-01  2.4840E+00
  6.2900E-01  1.6587E+00  8.2128E-01  2.4800E+00
  6.3000E-01  1.6561E+00  8.1988E-01  2.4760E+00
  6.3100E-01  1.6535E+00  8.1847E-01  2.4720E+00
  6.3200E-01  1.6508E+00  8.1705E-01  2.4678E+00
  6.3300E-01  1.6480E+00  8.1562E-01  2.4637E+00
  6.3400E-01  1.6453E+00  8.1417E-01  2.4594E+00
  6.3500E-01  1.6424E+00  8.1271E-01  2.4551E+00
  6.3600E-01  1.6395E+00  8.1123E-01  2.4508E+00
  6.3700E-01  1.6366E+00  8.0975E-01  2.4463E+00
  6.3800E-01  1.6335E+00  8.0825E-01  2.4418E+00
  6.3900E-01  1.6296E+00  8.0682E-01  2.4364E+00
  6.4000E-01  1.6256E+00  8.0538E-01  2.4310E+00
  6.4100E-01  1.6216E+00  8.0392E-01  2.4255E+00
  6.4200E-01  1.6175E+00  8.0245E-01  2.4199E+00
  6.4300E-01  1.6133E+00  8.0097E-01  2.4143E+00
  6.4400E-01  1.6091E+00  7.9947E-01  2.4085E+00
  6.4500E-01  1.6048E+00  7.9796E-01  2.4027E+00
  6.4600E-01  1.6004E+00  7.9643E-01  2.3968E+00
  6.4700E-01  1.5960E+00  7.9490E-01  2.3909E+00
  6.4800E-01  1.5915E+00  7.9334E-01  2.3848E+00
  6.4900E-01  1.5858E+00  7.9186E-01  2.3777E+00
  6.5000E-01  1.5798E+00  7.9040E-01  2.3702E+00
  6.5100E-01  1.5737E+00  7.8891E-01  2.3626E+00
  6.5200E-01  1.5675E+00  7.8742E-01  2.3550E+00
  6.5300E-01  1.5613E+00  7.8591E-01  2.3472E+00
  6.5400E-01  1.5549E+00  7.8439E-01  2.3393E+00
  6.5500E-01  1.5484E+00  7.8286E-01  2.3313E+00
  6.5600E-01  1.5419E+00  7.8131E-01  2.3232E+00
  6.5700E-01  1.5353E+00  7.7975E-01  2.3150E+00
  6.5800E-01  1.5285E+00  7.7817E-01  2.3067E+00
  6.5900E-01  1.5211E+00  7.7662E-01  2.2977E+00
  6.6000E-01  1.5118E+00  7.7517E-01  2.2870E+00
  6.6100E-01  1.5025E+00  7.7371E-01  2.2762E+00
  6.6200E-01  1.4930E+00  7.7224E-01  2.2653E+00
  6.6300E-01  1.4835E+00  7.7075E-01  2.2542E+00
  6.6400E-01  1.4738E+00  7.6925E-01  2.2430E+00
  6.6500E-01  1.4639E+00  7.6774E-01  2.2317E+00
  6.6600E-01  1.4540E+00  7.6621E-01  2.2202E+00
  6.6700E-01  1.4439E+00  7.6467E-01  2.2086E+00
  6.6800E-01  1.4338E+00  7.6312E-01  2.1969E+00
  6.6900E-01  1.4235E+00  7.6155E-01  2.1850E+00
  6.7000E-01  1.4102E+00  7.6013E-01  2.1704E+00
  6.7100E-01  1.3952E+00  7.5879E-01  2.1540E+00
  6.7200E-01  1.3800E+00  7.5743E-01  2.1375E+00
  6.7300E-01  1.3647E+00  7.5607E-01  2.1208E+00
  6.7400E-01  1.3492E+00  7.5469E-01  2.1039E+00
  6.7500E-01  1.3335E+00  7.5331E-01  2.0868E+00
  6.7600E-01  1.3177E+00  7.5191E-01  2.0696E+00
  6.7700E-01  1.3018E+00  7.5050E-01  2.0523E+00
  6.7800E-01  1.2857E+00  7.4908E-01  2.0348E+00
  6.7900E-01  1.2694E+00  7.4765E-01  2.0171E+00
  6.8000E-01  1.2531E+00  7.4620E-01  1.9993E+00
  6.8100E-01  1.2296E+00  7.4492E-01  1.9746E+00
  6.8200E-01  1.2044E+00  7.4366E-01  1.9481E+00
  6.8300E-01  1.1790E+00  7.4239E-01  1.9214E+00
  6.8400E-01  1.1535E+00  7.4111E-01  1.8946E+00
  6.8500E-01  1.1278E+00  7.3983E-01  1.8676E+00
  6.8600E-01  1.1020E+00  7.3853E-01  1.8406E+00
  6.8700E-01  1.0762E+00  7.3722E-01  1.8134E+00
  6.8800E-01  1.0502E+00  7.3591E-01  1.7861E+00
  6.8900E-01  1.0242E+00  7.3458E-01  1.7588E+00
  6.9000E-01  9.9816E-01  7.3324E-01  1.7314E+00
  6.9100E-01  9.5431E-01  7.2086E-01  1.6752E+00
  6.9200E-01  9.0184E-01  7.2690E-01  1.6287E+00
  6.9300E-01  8.4800E-01  7.1878E-01  1.5668E+00
  6.9400E-01  8.0904E-01  7.2037E-01  1.5294E+00
  6.9500E-01  7.4774E-01  7.2701E-01  1.4748E+00
  6.9600E-01  6.8726E-01  7.1998E-01  1.4072E+00
  6.9700E-01  6.2060E-01  7.2161E-01  1.3422E+00
  6.9800E-01  5.5048E-01  7.1906E-01  1.2695E+00
  6.9900E-01  4.7146E-01  7.2091E-01  1.1924E+00
  7.0000E-01  3.8494E-01  7.1623E-01  1.1012E+00
  7.0100E-01  3.0745E-01  7.2924E-01  1.0367E+00
  7.0200E-01  2.2816E-01  7.2456E-01  9.5272E-01
  7.0300E-01  2.0941E-01  7.4295E-01  9.5236E-01
  7.0400E-01  3.2754E-01  7.7111E-01  1.0986E+00
  7.0500E-01  8.3845E-01  8.4999E-01  1.6884E+00
  7.0600E-01  1.2793E+00  1.1087E+00  2.3879E+00
  7.0700E-01  1.0349E+00  1.1463E+00  2.1812E+00
  7.0800E-01  1.1382E+00  1.1722E+00  2.3104E+00
  7.0900E-01  1.1700E+00  1.1633E+00  2.3333E+00
  7.1000E-01  1.2414E+00  1.1398E+00  2.3812E+00
  7.1100E-01  1.2784E+00  1.1204E+00  2.3988E+00
  7.1200E-01  1.3372E+00  1.0981E+00  2.4354E+00
  7.1300E-01  1.3966E+00  1.0628E+00  2.4595E+00
  7.1400E-01  1.3729E+00  1.0408E+00  2.4137E+00
  7.1500E-01  1.3372E+00  1.0280E+00  2.3653E+00
  7.1600E-01  1.3033E+00  1.0051E+00  2.3084E+00
  7.1700E-01  1.1866E+00  9.8457E-01  2.1712E+00
  7.1800E-01  9.6208E-01  1.0023E+00  1.9644E+00
  7.1900E-01  8.2667E-01  1.0801E+00  1.9068E+00
  7.2000E-01  1.0553E+00  1.1124E+00  2.1678E+00
  7.2100E-01  1.0766E+00  1.1285E+00  2.2051E+00
  7.2200E-01  1.2103E+00  1.1179E+00  2.3283E+00
  7.2300E-01  1.3383E+00  1.0863E+00  2.4246E+00
  7.2400E-01  1.4122E+00  1.0485E+00  2.4607E+00
  7.2500E-01  1.4268E+00  1.0217E+00  2.4485E+00
  7.2600E-01  1.3997E+00  1.0067E+00  2.4065E+00
  7.2700E-01  1.3683E+00  1.0015E+00  2.3698E+00
  7.2800E-01  1.3417E+00  9.9826E-01  2.3399E+00
  7.2900E-01  1.3202E+00  9.9220E-01  2.3124E+00
  7.3000E-01  1.2940E+00  9.8554E-01  2.2796E+00
  7.3100E-01  1.2474E+00  9.8825E-01  2.2357E+00
  7.3200E-01  1.2025E+00  9.9096E-01  2.1935E+00
  7.3300E-01  1.1743E+00  1.0017E+00  2.1760E+00
  7.3400E-01  1.1473E+00  1.0086E+00  2.1559E+00
  7.3500E-01  1.1328E+00  1.0151E+00  2.1479E+00
  7.3600E-01  1.1212E+00  1.0215E+00  2.1427E+00
  7.3700E-01  1.1116E+00  1.0265E+00  2.1381E+00
  7.3800E-01  1.1049E+00  1.0327E+00  2.1375E+00
  7.3900E-01  1.1018E+00  1.0370E+00  2.1388E+00
  7.4000E-01  1.0996E+00  1.0421E+00  2.1417E+00
  7.4100E-01  1.1034E+00  1.0458E+00  2.1493E+00
  7.4200E-01  1.1067E+00  1.0488E+00  2.1554E+00
  7.4300E-01  1.1118E+00  1.0527E+00  2.1646E+00
  7.4400E-01  1.1155E+00  1.0552E+00  2.1706E+00
  7.4500E-01  1.1255E+00  1.0566E+00  2.1821E+00
  7.4600E-01  1.1339E+00  1.0577E+00  2.1916E+00
  7.4700E-01  1.1398E+00  1.0585E+00  2.1983E+00
  7.4800E-01  1.1508E+00  1.0582E+00  2.2090E+00
  7.4900E-01  1.1559E+00  1.0588E+00  2.2147E+00
  7.5000E-01  1.1637E+00  1.0578E+00  2.2215E+00
  7.5100E-01  1.1683E+00  1.0572E+00  2.2255E+00
  7.5200E-01  1.1729E+00  1.0566E+00  2.2295E+00
  7.5300E-01  1.1776E+00  1.0559E+00  2.2335E+00
  7.5400E-01  1.1824E+00  1.0552E+00  2.2376E+00
  7.5500E-01  1.1872E+00  1.0546E+00  2.2417E+00
  7.5600E-01  1.1920E+00  1.0539E+00  2.2459E+00
  7.5700E-01  1.1969E+00  1.0532E+00  2.2501E+00
  7.5800E-01  1.2018E+00  1.0525E+00  2.2543E+00
  7.5900E-01  1.2067E+00  1.0518E+00  2.2586E+00
  7.6000E-01  1.2117E+00  1.0511E+00  2.2629E+00
  7.6100E-01  1.2168E+00  1.0504E+00  2.2672E+00
  7.6200E-01  1.2198E+00  1.0498E+00  2.2696E+00
  7.6300E-01  1.2228E+00  1.0491E+00  2.2719E+00
  7.6400E-01  1.2258E+00  1.0484E+00  2.2743E+00
  7.6500E-01  1.2289E+00  1.0478E+00  2.2766E+00
  7.6600E-01  1.2319E+00  1.0471E+00  2.2790E+00
  7.6700E-01  1.2350E+00  1.0464E+00  2.2814E+00
  7.6800E-01  1.2381E+00  1.0457E+00  2.2839E+00
  7.6900E-01  1.2413E+00  1.0450E+00  2.2863E+00
  7.7000E-01  1.2445E+00  1.0443E+00  2.2888E+00
  7.7100E-01  1.2477E+00  1.0436E+00  2.2913E+00
  7.7200E-01  1.2509E+00  1.0428E+00  2.2938E+00
  7.7300E-01  1.2542E+00  1.0421E+00  2.2963E+00
  7.7400E-01  1.2568E+00  1.0414E+00  2.2982E+00
  7.7500E-01  1.2591E+00  1.0407E+00  2.2998E+00
  7.7600E-01  1.2614E+00  1.0401E+00  2.3015E+00
  7.7700E-01  1.2637E+00  1.0394E+00  2.3031E+00
  7.7800E-01  1.2661E+00  1.0387E+00  2.3047E+00
  7.7900E-01  1.2684E+00  1.0380E+00  2.3064E+00
  7.8000E-01  1.2708E+00  1.0372E+00  2.3080E+00
  7.8100E-01  1.2732E+00  1.0365E+00  2.3097E+00
  7.8200E-01  1.2756E+00  1.0358E+00  2.3114E+00
  7.8300E-01  1.2781E+00  1.0351E+00  2.3131E+00
  7.8400E-01  1.2805E+00  1.0343E+00  2.3148E+00
  7.8500E-01  1.2830E+00  1.0336E+00  2.3166E+00
  7.8600E-01  1.2854E+00  1.0328E+00  2.3182E+00
  7.8700E-01  1.2869E+00  1.0322E+00  2.3191E+00
  7.8800E-01  1.2885E+00  1.0315E+00  2.3200E+00
  7.8900E-01  1.2901E+00  1.0308E+00  2.3209E+00
  7.9000E-01  1.2917E+00  1.0301E+00  2.3218E+00
  7.9100E-01  1.2933E+00  1.0294E+00  2.3227E+00
  7.9200E-01  1.2949E+00  1.0287E+00  2.3236E+00
  7.9300E-01  1.2965E+00  1.0280E+00  2.3245E+00
  7.9400E-01  1.2982E+00  1.0272E+00  2.3254E+00
  7.9500E-01  1.2998E+00  1.0265E+00  2.3264E+00
  7.9600E-01  1.3015E+00  1.0258E+00  2.3273E+00
  7.9700E-01  1.3032E+00  1.0250E+00  2.3282E+00
  7.9800E-01  1.3049E+00  1.0243E+00  2.3292E+00
  7.9900E-01  1.3062E+00  1.0237E+00  2.3299E+00
