# GGADT v1.2.1
# =-=-=
# Total cross sections as a function of energy
# -----------------------------------
# Parameter values
# -----------------------------------
# a_eff:                               6.70000E-01 micron
# ephot_min:                           6.00000E-01kiloelectron-vo
# ephot_max:                           8.00000E-01kiloelectron-vo
# nephots:                                     200
# Material file:                                   hematite
# geometry:                                        ellipsoid
# angle_mode:                                      random
# ngrain:                                      128
# norientations:                                 1
# grain-axis-z:                        7.49522E-01 micron
# grain-axis-y:                        7.49522E-01 micron
# grain-axis-z:                        5.35373E-01 micron
# grid-width:                          1.49904E+00 micron
# axes-convention:                                 ddscat
# parameter_file_name:                             large_params_random.ini
# -----------------------------------
 # [ephot (kiloelectron-volt)] [Q_sca] [Q_abs] [Q_ext]
  6.0000E-01  1.0600E+00  8.9550E-01  1.9555E+00
  6.0100E-01  1.0609E+00  8.9504E-01  1.9559E+00
  6.0200E-01  1.0617E+00  8.9457E-01  1.9563E+00
  6.0300E-01  1.0626E+00  8.9410E-01  1.9567E+00
  6.0400E-01  1.0635E+00  8.9361E-01  1.9571E+00
  6.0500E-01  1.0644E+00  8.9313E-01  1.9575E+00
  6.0600E-01  1.0653E+00  8.9263E-01  1.9579E+00
  6.0700E-01  1.0662E+00  8.9213E-01  1.9584E+00
  6.0800E-01  1.0672E+00  8.9162E-01  1.9588E+00
  6.0900E-01  1.0682E+00  8.9115E-01  1.9594E+00
  6.1000E-01  1.0693E+00  8.9067E-01  1.9600E+00
  6.1100E-01  1.0704E+00  8.9019E-01  1.9606E+00
  6.1200E-01  1.0715E+00  8.8970E-01  1.9612E+00
  6.1300E-01  1.0727E+00  8.8921E-01  1.9619E+00
  6.1400E-01  1.0738E+00  8.8870E-01  1.9625E+00
  6.1500E-01  1.0750E+00  8.8819E-01  1.9632E+00
  6.1600E-01  1.0762E+00  8.8767E-01  1.9639E+00
  6.1700E-01  1.0775E+00  8.8715E-01  1.9647E+00
  6.1800E-01  1.0788E+00  8.8663E-01  1.9654E+00
  6.1900E-01  1.0802E+00  8.8614E-01  1.9663E+00
  6.2000E-01  1.0816E+00  8.8564E-01  1.9672E+00
  6.2100E-01  1.0830E+00  8.8513E-01  1.9681E+00
  6.2200E-01  1.0845E+00  8.8462E-01  1.9691E+00
  6.2300E-01  1.0860E+00  8.8411E-01  1.9701E+00
  6.2400E-01  1.0875E+00  8.8358E-01  1.9711E+00
  6.2500E-01  1.0891E+00  8.8305E-01  1.9722E+00
  6.2600E-01  1.0907E+00  8.8251E-01  1.9732E+00
  6.2700E-01  1.0924E+00  8.8196E-01  1.9743E+00
  6.2800E-01  1.0941E+00  8.8141E-01  1.9755E+00
  6.2900E-01  1.0959E+00  8.8089E-01  1.9768E+00
  6.3000E-01  1.0978E+00  8.8036E-01  1.9781E+00
  6.3100E-01  1.0997E+00  8.7982E-01  1.9795E+00
  6.3200E-01  1.1017E+00  8.7927E-01  1.9809E+00
  6.3300E-01  1.1037E+00  8.7872E-01  1.9824E+00
  6.3400E-01  1.1057E+00  8.7815E-01  1.9839E+00
  6.3500E-01  1.1078E+00  8.7758E-01  1.9854E+00
  6.3600E-01  1.1099E+00  8.7701E-01  1.9870E+00
  6.3700E-01  1.1121E+00  8.7642E-01  1.9886E+00
  6.3800E-01  1.1144E+00  8.7583E-01  1.9902E+00
  6.3900E-01  1.1169E+00  8.7526E-01  1.9921E+00
  6.4000E-01  1.1194E+00  8.7469E-01  1.9941E+00
  6.4100E-01  1.1220E+00  8.7411E-01  1.9961E+00
  6.4200E-01  1.1246E+00  8.7352E-01  1.9981E+00
  6.4300E-01  1.1273E+00  8.7292E-01  2.0002E+00
  6.4400E-01  1.1300E+00  8.7231E-01  2.0024E+00
  6.4500E-01  1.1328E+00  8.7170E-01  2.0045E+00
  6.4600E-01  1.1357E+00  8.7107E-01  2.0068E+00
  6.4700E-01  1.1386E+00  8.7044E-01  2.0091E+00
  6.4800E-01  1.1416E+00  8.6980E-01  2.0114E+00
  6.4900E-01  1.1449E+00  8.6919E-01  2.0141E+00
  6.5000E-01  1.1483E+00  8.6858E-01  2.0169E+00
  6.5100E-01  1.1518E+00  8.6796E-01  2.0197E+00
  6.5200E-01  1.1553E+00  8.6733E-01  2.0226E+00
  6.5300E-01  1.1589E+00  8.6670E-01  2.0256E+00
  6.5400E-01  1.1626E+00  8.6605E-01  2.0286E+00
  6.5500E-01  1.1663E+00  8.6540E-01  2.0317E+00
  6.5600E-01  1.1701E+00  8.6474E-01  2.0348E+00
  6.5700E-01  1.1740E+00  8.6407E-01  2.0380E+00
  6.5800E-01  1.1779E+00  8.6339E-01  2.0413E+00
  6.5900E-01  1.1820E+00  8.6272E-01  2.0447E+00
  6.6000E-01  1.1866E+00  8.6209E-01  2.0486E+00
  6.6100E-01  1.1912E+00  8.6145E-01  2.0526E+00
  6.6200E-01  1.1958E+00  8.6080E-01  2.0566E+00
  6.6300E-01  1.2005E+00  8.6015E-01  2.0607E+00
  6.6400E-01  1.2053E+00  8.5948E-01  2.0648E+00
  6.6500E-01  1.2101E+00  8.5881E-01  2.0689E+00
  6.6600E-01  1.2149E+00  8.5813E-01  2.0730E+00
  6.6700E-01  1.2197E+00  8.5744E-01  2.0772E+00
  6.6800E-01  1.2246E+00  8.5674E-01  2.0813E+00
  6.6900E-01  1.2295E+00  8.5603E-01  2.0855E+00
  6.7000E-01  1.2349E+00  8.5539E-01  2.0903E+00
  6.7100E-01  1.2406E+00  8.5478E-01  2.0954E+00
  6.7200E-01  1.2463E+00  8.5416E-01  2.1004E+00
  6.7300E-01  1.2518E+00  8.5353E-01  2.1054E+00
  6.7400E-01  1.2573E+00  8.5290E-01  2.1102E+00
  6.7500E-01  1.2626E+00  8.5226E-01  2.1148E+00
  6.7600E-01  1.2678E+00  8.5161E-01  2.1194E+00
  6.7700E-01  1.2728E+00  8.5095E-01  2.1237E+00
  6.7800E-01  1.2776E+00  8.5029E-01  2.1279E+00
  6.7900E-01  1.2822E+00  8.4962E-01  2.1318E+00
  6.8000E-01  1.2866E+00  8.4893E-01  2.1356E+00
  6.8100E-01  1.2914E+00  8.4833E-01  2.1397E+00
  6.8200E-01  1.2957E+00  8.4773E-01  2.1434E+00
  6.8300E-01  1.2992E+00  8.4712E-01  2.1463E+00
  6.8400E-01  1.3020E+00  8.4651E-01  2.1485E+00
  6.8500E-01  1.3040E+00  8.4589E-01  2.1499E+00
  6.8600E-01  1.3051E+00  8.4527E-01  2.1503E+00
  6.8700E-01  1.3052E+00  8.4464E-01  2.1499E+00
  6.8800E-01  1.3044E+00  8.4400E-01  2.1484E+00
  6.8900E-01  1.3026E+00  8.4335E-01  2.1459E+00
  6.9000E-01  1.2997E+00  8.4270E-01  2.1424E+00
  6.9100E-01  1.3061E+00  8.3654E-01  2.1426E+00
  6.9200E-01  1.2808E+00  8.3957E-01  2.1204E+00
  6.9300E-01  1.2687E+00  8.3548E-01  2.1042E+00
  6.9400E-01  1.2466E+00  8.3629E-01  2.0829E+00
  6.9500E-01  1.2010E+00  8.3962E-01  2.0406E+00
  6.9600E-01  1.1647E+00  8.3609E-01  2.0008E+00
  6.9700E-01  1.1042E+00  8.3691E-01  1.9411E+00
  6.9800E-01  1.0339E+00  8.3562E-01  1.8695E+00
  6.9900E-01  9.3563E-01  8.3656E-01  1.7722E+00
  7.0000E-01  8.1508E-01  8.3417E-01  1.6493E+00
  7.0100E-01  6.7834E-01  8.4073E-01  1.5191E+00
  7.0200E-01  5.3287E-01  8.3840E-01  1.3713E+00
  7.0300E-01  4.8732E-01  8.4739E-01  1.3347E+00
  7.0400E-01  6.8687E-01  8.6031E-01  1.5472E+00
  7.0500E-01  1.1094E+00  8.9136E-01  2.0008E+00
  7.0600E-01  9.7812E-01  9.5197E-01  1.9301E+00
  7.0700E-01  9.4332E-01  9.5723E-01  1.9006E+00
  7.0800E-01  9.5630E-01  9.6048E-01  1.9168E+00
  7.0900E-01  9.6079E-01  9.5942E-01  1.9202E+00
  7.1000E-01  9.6971E-01  9.5635E-01  1.9261E+00
  7.1100E-01  9.7544E-01  9.5366E-01  1.9291E+00
  7.1200E-01  9.8343E-01  9.5039E-01  1.9338E+00
  7.1300E-01  9.9453E-01  9.4470E-01  1.9392E+00
  7.1400E-01  1.0020E+00  9.4080E-01  1.9428E+00
  7.1500E-01  1.0083E+00  9.3840E-01  1.9467E+00
  7.1600E-01  1.0216E+00  9.3382E-01  1.9554E+00
  7.1700E-01  1.0383E+00  9.2939E-01  1.9677E+00
  7.1800E-01  1.0051E+00  9.3324E-01  1.9383E+00
  7.1900E-01  9.1640E-01  9.4756E-01  1.8640E+00
  7.2000E-01  9.5678E-01  9.5252E-01  1.9093E+00
  7.2100E-01  9.5448E-01  9.5480E-01  1.9093E+00
  7.2200E-01  9.7140E-01  9.5331E-01  1.9247E+00
  7.2300E-01  9.8654E-01  9.4855E-01  1.9351E+00
  7.2400E-01  9.9901E-01  9.4219E-01  1.9412E+00
  7.2500E-01  1.0083E+00  9.3717E-01  1.9454E+00
  7.2600E-01  1.0159E+00  9.3415E-01  1.9501E+00
  7.2700E-01  1.0203E+00  9.3306E-01  1.9533E+00
  7.2800E-01  1.0236E+00  9.3237E-01  1.9560E+00
  7.2900E-01  1.0284E+00  9.3107E-01  1.9595E+00
  7.3000E-01  1.0341E+00  9.2960E-01  1.9637E+00
  7.3100E-01  1.0345E+00  9.3020E-01  1.9647E+00
  7.3200E-01  1.0337E+00  9.3080E-01  1.9645E+00
  7.3300E-01  1.0262E+00  9.3310E-01  1.9593E+00
  7.3400E-01  1.0208E+00  9.3454E-01  1.9554E+00
  7.3500E-01  1.0159E+00  9.3586E-01  1.9518E+00
  7.3600E-01  1.0111E+00  9.3713E-01  1.9482E+00
  7.3700E-01  1.0072E+00  9.3810E-01  1.9453E+00
  7.3800E-01  1.0028E+00  9.3928E-01  1.9421E+00
  7.3900E-01  9.9989E-01  9.4010E-01  1.9400E+00
  7.4000E-01  9.9664E-01  9.4103E-01  1.9377E+00
  7.4100E-01  9.9473E-01  9.4172E-01  1.9364E+00
  7.4200E-01  9.9328E-01  9.4225E-01  1.9355E+00
  7.4300E-01  9.9145E-01  9.4295E-01  1.9344E+00
  7.4400E-01  9.9039E-01  9.4338E-01  1.9338E+00
  7.4500E-01  9.9040E-01  9.4362E-01  1.9340E+00
  7.4600E-01  9.9041E-01  9.4381E-01  1.9342E+00
  7.4700E-01  9.9038E-01  9.4395E-01  1.9343E+00
  7.4800E-01  9.9118E-01  9.4391E-01  1.9351E+00
  7.4900E-01  9.9121E-01  9.4400E-01  1.9352E+00
  7.5000E-01  9.9212E-01  9.4384E-01  1.9360E+00
  7.5100E-01  9.9268E-01  9.4373E-01  1.9364E+00
  7.5200E-01  9.9323E-01  9.4362E-01  1.9369E+00
  7.5300E-01  9.9378E-01  9.4350E-01  1.9373E+00
  7.5400E-01  9.9432E-01  9.4339E-01  1.9377E+00
  7.5500E-01  9.9485E-01  9.4327E-01  1.9381E+00
  7.5600E-01  9.9537E-01  9.4316E-01  1.9385E+00
  7.5700E-01  9.9589E-01  9.4304E-01  1.9389E+00
  7.5800E-01  9.9639E-01  9.4291E-01  1.9393E+00
  7.5900E-01  9.9689E-01  9.4279E-01  1.9397E+00
  7.6000E-01  9.9738E-01  9.4267E-01  1.9400E+00
  7.6100E-01  9.9786E-01  9.4254E-01  1.9404E+00
  7.6200E-01  9.9825E-01  9.4242E-01  1.9407E+00
  7.6300E-01  9.9865E-01  9.4231E-01  1.9410E+00
  7.6400E-01  9.9904E-01  9.4219E-01  1.9412E+00
  7.6500E-01  9.9943E-01  9.4207E-01  1.9415E+00
  7.6600E-01  9.9982E-01  9.4194E-01  1.9418E+00
  7.6700E-01  1.0002E+00  9.4182E-01  1.9420E+00
  7.6800E-01  1.0006E+00  9.4169E-01  1.9423E+00
  7.6900E-01  1.0010E+00  9.4157E-01  1.9425E+00
  7.7000E-01  1.0014E+00  9.4144E-01  1.9428E+00
  7.7100E-01  1.0018E+00  9.4131E-01  1.9431E+00
  7.7200E-01  1.0021E+00  9.4117E-01  1.9433E+00
  7.7300E-01  1.0025E+00  9.4104E-01  1.9436E+00
  7.7400E-01  1.0029E+00  9.4091E-01  1.9438E+00
  7.7500E-01  1.0032E+00  9.4079E-01  1.9440E+00
  7.7600E-01  1.0036E+00  9.4066E-01  1.9442E+00
  7.7700E-01  1.0039E+00  9.4053E-01  1.9444E+00
  7.7800E-01  1.0042E+00  9.4041E-01  1.9446E+00
  7.7900E-01  1.0046E+00  9.4028E-01  1.9449E+00
  7.8000E-01  1.0049E+00  9.4014E-01  1.9451E+00
  7.8100E-01  1.0053E+00  9.4001E-01  1.9453E+00
  7.8200E-01  1.0056E+00  9.3987E-01  1.9455E+00
  7.8300E-01  1.0060E+00  9.3973E-01  1.9457E+00
  7.8400E-01  1.0063E+00  9.3960E-01  1.9459E+00
  7.8500E-01  1.0067E+00  9.3945E-01  1.9461E+00
  7.8600E-01  1.0070E+00  9.3931E-01  1.9463E+00
  7.8700E-01  1.0073E+00  9.3919E-01  1.9465E+00
  7.8800E-01  1.0077E+00  9.3906E-01  1.9467E+00
  7.8900E-01  1.0080E+00  9.3893E-01  1.9469E+00
  7.9000E-01  1.0083E+00  9.3879E-01  1.9471E+00
  7.9100E-01  1.0086E+00  9.3866E-01  1.9473E+00
  7.9200E-01  1.0090E+00  9.3852E-01  1.9475E+00
  7.9300E-01  1.0093E+00  9.3839E-01  1.9477E+00
  7.9400E-01  1.0096E+00  9.3825E-01  1.9479E+00
  7.9500E-01  1.0100E+00  9.3811E-01  1.9481E+00
  7.9600E-01  1.0103E+00  9.3796E-01  1.9483E+00
  7.9700E-01  1.0107E+00  9.3782E-01  1.9485E+00
  7.9800E-01  1.0110E+00  9.3767E-01  1.9487E+00
  7.9900E-01  1.0113E+00  9.3756E-01  1.9488E+00
