# GGADT v1.2.1
# =-=-=
# Total cross sections as a function of energy
# -----------------------------------
# Parameter values
# -----------------------------------
# a_eff:                               3.40000E-01 micron
# ephot_min:                           6.00000E-01kiloelectron-vo
# ephot_max:                           8.00000E-01kiloelectron-vo
# nephots:                                     200
# Material file:                                   hematite
# geometry:                                        ellipsoid
# angle_mode:                                      file
# angle_file:                                      angles
# ngrain:                                      128
# norientations:                                 1
# grain-axis-z:                        3.80354E-01 micron
# grain-axis-y:                        3.80354E-01 micron
# grain-axis-z:                        2.71682E-01 micron
# grid-width:                          7.60708E-01 micron
# axes-convention:                                 ddscat
# parameter_file_name:                             large_params_set.ini
# -----------------------------------
 # [ephot (kiloelectron-volt)] [Q_sca] [Q_abs] [Q_ext]
  6.0000E-01  1.7342E+00  8.9186E-01  2.6261E+00
  6.0100E-01  1.7340E+00  8.9037E-01  2.6243E+00
  6.0200E-01  1.7337E+00  8.8886E-01  2.6226E+00
  6.0300E-01  1.7334E+00  8.8734E-01  2.6208E+00
  6.0400E-01  1.7331E+00  8.8581E-01  2.6190E+00
  6.0500E-01  1.7328E+00  8.8426E-01  2.6171E+00
  6.0600E-01  1.7325E+00  8.8269E-01  2.6152E+00
  6.0700E-01  1.7322E+00  8.8111E-01  2.6133E+00
  6.0800E-01  1.7318E+00  8.7952E-01  2.6113E+00
  6.0900E-01  1.7306E+00  8.7806E-01  2.6087E+00
  6.1000E-01  1.7295E+00  8.7659E-01  2.6061E+00
  6.1100E-01  1.7283E+00  8.7510E-01  2.6034E+00
  6.1200E-01  1.7271E+00  8.7359E-01  2.6007E+00
  6.1300E-01  1.7259E+00  8.7208E-01  2.5980E+00
  6.1400E-01  1.7247E+00  8.7054E-01  2.5952E+00
  6.1500E-01  1.7234E+00  8.6900E-01  2.5924E+00
  6.1600E-01  1.7221E+00  8.6743E-01  2.5895E+00
  6.1700E-01  1.7208E+00  8.6586E-01  2.5866E+00
  6.1800E-01  1.7193E+00  8.6430E-01  2.5836E+00
  6.1900E-01  1.7172E+00  8.6284E-01  2.5800E+00
  6.2000E-01  1.7151E+00  8.6137E-01  2.5764E+00
  6.2100E-01  1.7129E+00  8.5988E-01  2.5728E+00
  6.2200E-01  1.7107E+00  8.5838E-01  2.5691E+00
  6.2300E-01  1.7085E+00  8.5687E-01  2.5653E+00
  6.2400E-01  1.7062E+00  8.5534E-01  2.5615E+00
  6.2500E-01  1.7039E+00  8.5379E-01  2.5577E+00
  6.2600E-01  1.7016E+00  8.5224E-01  2.5538E+00
  6.2700E-01  1.6992E+00  8.5066E-01  2.5498E+00
  6.2800E-01  1.6966E+00  8.4911E-01  2.5457E+00
  6.2900E-01  1.6934E+00  8.4761E-01  2.5410E+00
  6.3000E-01  1.6902E+00  8.4611E-01  2.5363E+00
  6.3100E-01  1.6869E+00  8.4459E-01  2.5315E+00
  6.3200E-01  1.6836E+00  8.4305E-01  2.5266E+00
  6.3300E-01  1.6802E+00  8.4151E-01  2.5217E+00
  6.3400E-01  1.6768E+00  8.3994E-01  2.5168E+00
  6.3500E-01  1.6733E+00  8.3837E-01  2.5117E+00
  6.3600E-01  1.6698E+00  8.3678E-01  2.5066E+00
  6.3700E-01  1.6663E+00  8.3517E-01  2.5014E+00
  6.3800E-01  1.6626E+00  8.3356E-01  2.4961E+00
  6.3900E-01  1.6579E+00  8.3202E-01  2.4900E+00
  6.4000E-01  1.6533E+00  8.3047E-01  2.4837E+00
  6.4100E-01  1.6485E+00  8.2890E-01  2.4774E+00
  6.4200E-01  1.6437E+00  8.2732E-01  2.4710E+00
  6.4300E-01  1.6388E+00  8.2572E-01  2.4646E+00
  6.4400E-01  1.6339E+00  8.2411E-01  2.4580E+00
  6.4500E-01  1.6289E+00  8.2248E-01  2.4514E+00
  6.4600E-01  1.6238E+00  8.2084E-01  2.4447E+00
  6.4700E-01  1.6187E+00  8.1919E-01  2.4379E+00
  6.4800E-01  1.6135E+00  8.1752E-01  2.4310E+00
  6.4900E-01  1.6071E+00  8.1593E-01  2.4231E+00
  6.5000E-01  1.6003E+00  8.1435E-01  2.4147E+00
  6.5100E-01  1.5934E+00  8.1276E-01  2.4062E+00
  6.5200E-01  1.5865E+00  8.1116E-01  2.3976E+00
  6.5300E-01  1.5794E+00  8.0954E-01  2.3889E+00
  6.5400E-01  1.5723E+00  8.0791E-01  2.3802E+00
  6.5500E-01  1.5651E+00  8.0626E-01  2.3713E+00
  6.5600E-01  1.5577E+00  8.0460E-01  2.3623E+00
  6.5700E-01  1.5504E+00  8.0292E-01  2.3533E+00
  6.5800E-01  1.5429E+00  8.0123E-01  2.3441E+00
  6.5900E-01  1.5346E+00  7.9957E-01  2.3342E+00
  6.6000E-01  1.5245E+00  7.9802E-01  2.3225E+00
  6.6100E-01  1.5143E+00  7.9645E-01  2.3108E+00
  6.6200E-01  1.5040E+00  7.9487E-01  2.2989E+00
  6.6300E-01  1.4936E+00  7.9328E-01  2.2868E+00
  6.6400E-01  1.4830E+00  7.9167E-01  2.2747E+00
  6.6500E-01  1.4724E+00  7.9005E-01  2.2624E+00
  6.6600E-01  1.4616E+00  7.8842E-01  2.2500E+00
  6.6700E-01  1.4507E+00  7.8677E-01  2.2375E+00
  6.6800E-01  1.4398E+00  7.8511E-01  2.2249E+00
  6.6900E-01  1.4287E+00  7.8343E-01  2.2121E+00
  6.7000E-01  1.4145E+00  7.8191E-01  2.1965E+00
  6.7100E-01  1.3986E+00  7.8048E-01  2.1790E+00
  6.7200E-01  1.3825E+00  7.7903E-01  2.1615E+00
  6.7300E-01  1.3662E+00  7.7757E-01  2.1438E+00
  6.7400E-01  1.3498E+00  7.7610E-01  2.1259E+00
  6.7500E-01  1.3333E+00  7.7462E-01  2.1079E+00
  6.7600E-01  1.3167E+00  7.7313E-01  2.0898E+00
  6.7700E-01  1.2999E+00  7.7162E-01  2.0715E+00
  6.7800E-01  1.2830E+00  7.7011E-01  2.0531E+00
  6.7900E-01  1.2660E+00  7.6858E-01  2.0346E+00
  6.8000E-01  1.2489E+00  7.6704E-01  2.0160E+00
  6.8100E-01  1.2246E+00  7.6566E-01  1.9903E+00
  6.8200E-01  1.1984E+00  7.6432E-01  1.9628E+00
  6.8300E-01  1.1722E+00  7.6297E-01  1.9352E+00
  6.8400E-01  1.1458E+00  7.6161E-01  1.9075E+00
  6.8500E-01  1.1194E+00  7.6023E-01  1.8797E+00
  6.8600E-01  1.0930E+00  7.5885E-01  1.8518E+00
  6.8700E-01  1.0664E+00  7.5746E-01  1.8239E+00
  6.8800E-01  1.0399E+00  7.5605E-01  1.7960E+00
  6.8900E-01  1.0134E+00  7.5464E-01  1.7680E+00
  6.9000E-01  9.8685E-01  7.5321E-01  1.7401E+00
  6.9100E-01  9.4161E-01  7.4004E-01  1.6817E+00
  6.9200E-01  8.8909E-01  7.4646E-01  1.6356E+00
  6.9300E-01  8.3447E-01  7.3783E-01  1.5723E+00
  6.9400E-01  7.9552E-01  7.3952E-01  1.5350E+00
  6.9500E-01  7.3456E-01  7.4658E-01  1.4811E+00
  6.9600E-01  6.7394E-01  7.3910E-01  1.4130E+00
  6.9700E-01  6.0777E-01  7.4084E-01  1.3486E+00
  6.9800E-01  5.3824E-01  7.3813E-01  1.2764E+00
  6.9900E-01  4.6030E-01  7.4010E-01  1.2004E+00
  7.0000E-01  3.7510E-01  7.3512E-01  1.1102E+00
  7.0100E-01  2.9938E-01  7.4896E-01  1.0483E+00
  7.0200E-01  2.2179E-01  7.4397E-01  9.6576E-01
  7.0300E-01  2.0371E-01  7.6356E-01  9.6727E-01
  7.0400E-01  3.1986E-01  7.9366E-01  1.1135E+00
  7.0500E-01  8.3322E-01  8.7870E-01  1.7119E+00
  7.0600E-01  1.3537E+00  1.1688E+00  2.5225E+00
  7.0700E-01  1.0800E+00  1.2132E+00  2.2932E+00
  7.0800E-01  1.2039E+00  1.2435E+00  2.4474E+00
  7.0900E-01  1.2419E+00  1.2333E+00  2.4752E+00
  7.1000E-01  1.3246E+00  1.2054E+00  2.5300E+00
  7.1100E-01  1.3597E+00  1.1825E+00  2.5422E+00
  7.1200E-01  1.4204E+00  1.1564E+00  2.5768E+00
  7.1300E-01  1.4736E+00  1.1156E+00  2.5892E+00
  7.1400E-01  1.4350E+00  1.0904E+00  2.5254E+00
  7.1500E-01  1.3892E+00  1.0759E+00  2.4651E+00
  7.1600E-01  1.3444E+00  1.0500E+00  2.3944E+00
  7.1700E-01  1.2121E+00  1.0269E+00  2.2390E+00
  7.1800E-01  9.7545E-01  1.0468E+00  2.0223E+00
  7.1900E-01  8.4249E-01  1.1355E+00  1.9780E+00
  7.2000E-01  1.0951E+00  1.1732E+00  2.2683E+00
  7.2100E-01  1.1229E+00  1.1921E+00  2.3150E+00
  7.2200E-01  1.2744E+00  1.1796E+00  2.4541E+00
  7.2300E-01  1.4144E+00  1.1427E+00  2.5571E+00
  7.2400E-01  1.4852E+00  1.0991E+00  2.5844E+00
  7.2500E-01  1.4907E+00  1.0687E+00  2.5594E+00
  7.2600E-01  1.4539E+00  1.0518E+00  2.5056E+00
  7.2700E-01  1.4164E+00  1.0459E+00  2.4623E+00
  7.2800E-01  1.3855E+00  1.0422E+00  2.4277E+00
  7.2900E-01  1.3600E+00  1.0354E+00  2.3954E+00
  7.3000E-01  1.3294E+00  1.0280E+00  2.3573E+00
  7.3100E-01  1.2788E+00  1.0310E+00  2.3098E+00
  7.3200E-01  1.2305E+00  1.0340E+00  2.2645E+00
  7.3300E-01  1.2019E+00  1.0461E+00  2.2480E+00
  7.3400E-01  1.1740E+00  1.0539E+00  2.2279E+00
  7.3500E-01  1.1596E+00  1.0612E+00  2.2208E+00
  7.3600E-01  1.1482E+00  1.0684E+00  2.2166E+00
  7.3700E-01  1.1387E+00  1.0741E+00  2.2128E+00
  7.3800E-01  1.1326E+00  1.0811E+00  2.2137E+00
  7.3900E-01  1.1300E+00  1.0861E+00  2.2161E+00
  7.4000E-01  1.1287E+00  1.0918E+00  2.2205E+00
  7.4100E-01  1.1336E+00  1.0961E+00  2.2297E+00
  7.4200E-01  1.1377E+00  1.0995E+00  2.2372E+00
  7.4300E-01  1.1441E+00  1.1040E+00  2.2482E+00
  7.4400E-01  1.1487E+00  1.1068E+00  2.2554E+00
  7.4500E-01  1.1600E+00  1.1084E+00  2.2684E+00
  7.4600E-01  1.1695E+00  1.1096E+00  2.2791E+00
  7.4700E-01  1.1762E+00  1.1106E+00  2.2867E+00
  7.4800E-01  1.1882E+00  1.1103E+00  2.2985E+00
  7.4900E-01  1.1940E+00  1.1109E+00  2.3049E+00
  7.5000E-01  1.2024E+00  1.1098E+00  2.3122E+00
  7.5100E-01  1.2073E+00  1.1091E+00  2.3165E+00
  7.5200E-01  1.2124E+00  1.1084E+00  2.3207E+00
  7.5300E-01  1.2174E+00  1.1076E+00  2.3250E+00
  7.5400E-01  1.2225E+00  1.1069E+00  2.3294E+00
  7.5500E-01  1.2277E+00  1.1061E+00  2.3338E+00
  7.5600E-01  1.2329E+00  1.1053E+00  2.3382E+00
  7.5700E-01  1.2381E+00  1.1046E+00  2.3427E+00
  7.5800E-01  1.2434E+00  1.1038E+00  2.3472E+00
  7.5900E-01  1.2488E+00  1.1030E+00  2.3518E+00
  7.6000E-01  1.2542E+00  1.1022E+00  2.3564E+00
  7.6100E-01  1.2596E+00  1.1014E+00  2.3610E+00
  7.6200E-01  1.2629E+00  1.1006E+00  2.3635E+00
  7.6300E-01  1.2660E+00  1.0999E+00  2.3659E+00
  7.6400E-01  1.2692E+00  1.0991E+00  2.3683E+00
  7.6500E-01  1.2725E+00  1.0983E+00  2.3708E+00
  7.6600E-01  1.2757E+00  1.0976E+00  2.3733E+00
  7.6700E-01  1.2790E+00  1.0968E+00  2.3758E+00
  7.6800E-01  1.2823E+00  1.0960E+00  2.3783E+00
  7.6900E-01  1.2857E+00  1.0952E+00  2.3808E+00
  7.7000E-01  1.2890E+00  1.0944E+00  2.3834E+00
  7.7100E-01  1.2924E+00  1.0935E+00  2.3860E+00
  7.7200E-01  1.2959E+00  1.0927E+00  2.3886E+00
  7.7300E-01  1.2994E+00  1.0919E+00  2.3912E+00
  7.7400E-01  1.3021E+00  1.0911E+00  2.3932E+00
  7.7500E-01  1.3045E+00  1.0903E+00  2.3948E+00
  7.7600E-01  1.3069E+00  1.0895E+00  2.3964E+00
  7.7700E-01  1.3093E+00  1.0887E+00  2.3980E+00
  7.7800E-01  1.3117E+00  1.0879E+00  2.3997E+00
  7.7900E-01  1.3142E+00  1.0871E+00  2.4013E+00
  7.8000E-01  1.3167E+00  1.0863E+00  2.4030E+00
  7.8100E-01  1.3192E+00  1.0855E+00  2.4047E+00
  7.8200E-01  1.3217E+00  1.0847E+00  2.4064E+00
  7.8300E-01  1.3242E+00  1.0838E+00  2.4081E+00
  7.8400E-01  1.3268E+00  1.0830E+00  2.4098E+00
  7.8500E-01  1.3294E+00  1.0821E+00  2.4115E+00
  7.8600E-01  1.3318E+00  1.0813E+00  2.4131E+00
  7.8700E-01  1.3334E+00  1.0805E+00  2.4139E+00
  7.8800E-01  1.3350E+00  1.0798E+00  2.4147E+00
  7.8900E-01  1.3366E+00  1.0790E+00  2.4155E+00
  7.9000E-01  1.3382E+00  1.0782E+00  2.4164E+00
  7.9100E-01  1.3398E+00  1.0774E+00  2.4172E+00
  7.9200E-01  1.3414E+00  1.0766E+00  2.4180E+00
  7.9300E-01  1.3430E+00  1.0758E+00  2.4188E+00
  7.9400E-01  1.3447E+00  1.0750E+00  2.4196E+00
  7.9500E-01  1.3464E+00  1.0741E+00  2.4205E+00
  7.9600E-01  1.3480E+00  1.0733E+00  2.4213E+00
  7.9700E-01  1.3497E+00  1.0724E+00  2.4222E+00
  7.9800E-01  1.3514E+00  1.0716E+00  2.4230E+00
  7.9900E-01  1.3527E+00  1.0709E+00  2.4237E+00
