# GGADT v1.2.1
# =-=-=
# Total cross sections as a function of energy
# -----------------------------------
# Parameter values
# -----------------------------------
# a_eff:                               1.00000E-02 micron
# ephot_min:                           6.00000E-01kiloelectron-vo
# ephot_max:                           8.00000E-01kiloelectron-vo
# nephots:                                     200
# Material file:                                   lepidocrocite
# geometry:                                        ellipsoid
# angle_mode:                                      random
# ngrain:                                      128
# norientations:                                 1
# grain-axis-z:                        1.00000E-02 micron
# grain-axis-y:                        1.00000E-02 micron
# grain-axis-z:                        1.00000E-02 micron
# grid-width:                          2.00000E-02 micron
# axes-convention:                                 ddscat
# parameter_file_name:                             params_sphere_rand.ini
# -----------------------------------
 # [ephot (kiloelectron-volt)] [Q_sca] [Q_abs] [Q_ext]
  6.0000E-01  3.7066E-03  4.1369E-02  4.5075E-02
  6.0100E-01  3.6957E-03  4.1217E-02  4.4913E-02
  6.0200E-01  3.6848E-03  4.1065E-02  4.4750E-02
  6.0300E-01  3.6739E-03  4.0912E-02  4.4586E-02
  6.0400E-01  3.6628E-03  4.0759E-02  4.4421E-02
  6.0500E-01  3.6518E-03  4.0604E-02  4.4256E-02
  6.0600E-01  3.6406E-03  4.0449E-02  4.4090E-02
  6.0700E-01  3.6295E-03  4.0293E-02  4.3923E-02
  6.0800E-01  3.6181E-03  4.0138E-02  4.3756E-02
  6.0900E-01  3.6051E-03  3.9995E-02  4.3600E-02
  6.1000E-01  3.5921E-03  3.9852E-02  4.3444E-02
  6.1100E-01  3.5790E-03  3.9708E-02  4.3287E-02
  6.1200E-01  3.5659E-03  3.9563E-02  4.3129E-02
  6.1300E-01  3.5527E-03  3.9418E-02  4.2971E-02
  6.1400E-01  3.5394E-03  3.9272E-02  4.2811E-02
  6.1500E-01  3.5261E-03  3.9125E-02  4.2651E-02
  6.1600E-01  3.5127E-03  3.8978E-02  4.2490E-02
  6.1700E-01  3.4993E-03  3.8829E-02  4.2329E-02
  6.1800E-01  3.4855E-03  3.8684E-02  4.2169E-02
  6.1900E-01  3.4706E-03  3.8548E-02  4.2019E-02
  6.2000E-01  3.4556E-03  3.8411E-02  4.1867E-02
  6.2100E-01  3.4405E-03  3.8274E-02  4.1715E-02
  6.2200E-01  3.4255E-03  3.8137E-02  4.1562E-02
  6.2300E-01  3.4103E-03  3.7998E-02  4.1408E-02
  6.2400E-01  3.3951E-03  3.7859E-02  4.1254E-02
  6.2500E-01  3.3799E-03  3.7719E-02  4.1099E-02
  6.2600E-01  3.3646E-03  3.7579E-02  4.0943E-02
  6.2700E-01  3.3493E-03  3.7438E-02  4.0787E-02
  6.2800E-01  3.3335E-03  3.7298E-02  4.0632E-02
  6.2900E-01  3.3165E-03  3.7166E-02  4.0482E-02
  6.3000E-01  3.2994E-03  3.7033E-02  4.0332E-02
  6.3100E-01  3.2823E-03  3.6899E-02  4.0181E-02
  6.3200E-01  3.2652E-03  3.6764E-02  4.0029E-02
  6.3300E-01  3.2480E-03  3.6629E-02  3.9877E-02
  6.3400E-01  3.2308E-03  3.6493E-02  3.9724E-02
  6.3500E-01  3.2135E-03  3.6357E-02  3.9570E-02
  6.3600E-01  3.1962E-03  3.6220E-02  3.9416E-02
  6.3700E-01  3.1789E-03  3.6082E-02  3.9261E-02
  6.3800E-01  3.1613E-03  3.5945E-02  3.9106E-02
  6.3900E-01  3.1417E-03  3.5814E-02  3.8956E-02
  6.4000E-01  3.1221E-03  3.5682E-02  3.8804E-02
  6.4100E-01  3.1024E-03  3.5550E-02  3.8653E-02
  6.4200E-01  3.0827E-03  3.5418E-02  3.8500E-02
  6.4300E-01  3.0630E-03  3.5284E-02  3.8348E-02
  6.4400E-01  3.0433E-03  3.5151E-02  3.8194E-02
  6.4500E-01  3.0235E-03  3.5016E-02  3.8040E-02
  6.4600E-01  3.0038E-03  3.4881E-02  3.7885E-02
  6.4700E-01  2.9839E-03  3.4745E-02  3.7729E-02
  6.4800E-01  2.9641E-03  3.4609E-02  3.7573E-02
  6.4900E-01  2.9418E-03  3.4480E-02  3.7422E-02
  6.5000E-01  2.9188E-03  3.4352E-02  3.7271E-02
  6.5100E-01  2.8958E-03  3.4224E-02  3.7120E-02
  6.5200E-01  2.8728E-03  3.4096E-02  3.6969E-02
  6.5300E-01  2.8498E-03  3.3967E-02  3.6816E-02
  6.5400E-01  2.8268E-03  3.3837E-02  3.6664E-02
  6.5500E-01  2.8038E-03  3.3706E-02  3.6510E-02
  6.5600E-01  2.7807E-03  3.3575E-02  3.6356E-02
  6.5700E-01  2.7577E-03  3.3444E-02  3.6202E-02
  6.5800E-01  2.7347E-03  3.3312E-02  3.6047E-02
  6.5900E-01  2.7102E-03  3.3183E-02  3.5893E-02
  6.6000E-01  2.6824E-03  3.3063E-02  3.5745E-02
  6.6100E-01  2.6545E-03  3.2942E-02  3.5596E-02
  6.6200E-01  2.6267E-03  3.2820E-02  3.5447E-02
  6.6300E-01  2.5989E-03  3.2698E-02  3.5297E-02
  6.6400E-01  2.5712E-03  3.2576E-02  3.5147E-02
  6.6500E-01  2.5435E-03  3.2453E-02  3.4996E-02
  6.6600E-01  2.5159E-03  3.2329E-02  3.4845E-02
  6.6700E-01  2.4883E-03  3.2205E-02  3.4693E-02
  6.6800E-01  2.4607E-03  3.2080E-02  3.4541E-02
  6.6900E-01  2.4332E-03  3.1955E-02  3.4389E-02
  6.7000E-01  2.4003E-03  3.1842E-02  3.4242E-02
  6.7100E-01  2.3644E-03  3.1736E-02  3.4100E-02
  6.7200E-01  2.3286E-03  3.1629E-02  3.3958E-02
  6.7300E-01  2.2930E-03  3.1522E-02  3.3815E-02
  6.7400E-01  2.2575E-03  3.1414E-02  3.3671E-02
  6.7500E-01  2.2222E-03  3.1306E-02  3.3528E-02
  6.7600E-01  2.1871E-03  3.1197E-02  3.3384E-02
  6.7700E-01  2.1522E-03  3.1088E-02  3.3240E-02
  6.7800E-01  2.1174E-03  3.0978E-02  3.3095E-02
  6.7900E-01  2.0828E-03  3.0868E-02  3.2951E-02
  6.8000E-01  2.0483E-03  3.0757E-02  3.2806E-02
  6.8100E-01  1.9973E-03  3.0659E-02  3.2656E-02
  6.8200E-01  1.9428E-03  3.0563E-02  3.2506E-02
  6.8300E-01  1.8890E-03  3.0467E-02  3.2356E-02
  6.8400E-01  1.8359E-03  3.0371E-02  3.2207E-02
  6.8500E-01  1.7834E-03  3.0274E-02  3.2057E-02
  6.8600E-01  1.7316E-03  3.0176E-02  3.1908E-02
  6.8700E-01  1.6805E-03  3.0079E-02  3.1759E-02
  6.8800E-01  1.6301E-03  2.9981E-02  3.1611E-02
  6.8900E-01  1.5803E-03  2.9882E-02  3.1462E-02
  6.9000E-01  1.5313E-03  2.9783E-02  3.1314E-02
  6.9100E-01  1.5059E-03  3.0188E-02  3.1694E-02
  6.9200E-01  1.4263E-03  2.9405E-02  3.0831E-02
  6.9300E-01  1.3377E-03  2.9484E-02  3.0821E-02
  6.9400E-01  1.2858E-03  2.9893E-02  3.1179E-02
  6.9500E-01  1.1978E-03  2.9791E-02  3.0989E-02
  6.9600E-01  1.1204E-03  3.0094E-02  3.1214E-02
  6.9700E-01  1.0207E-03  3.0466E-02  3.1487E-02
  6.9800E-01  9.1954E-04  3.0256E-02  3.1176E-02
  6.9900E-01  8.0443E-04  2.9568E-02  3.0372E-02
  7.0000E-01  6.8764E-04  3.0413E-02  3.1101E-02
  7.0100E-01  5.6266E-04  3.0617E-02  3.1180E-02
  7.0200E-01  4.4878E-04  3.1574E-02  3.2023E-02
  7.0300E-01  3.4906E-04  3.2655E-02  3.3004E-02
  7.0400E-01  3.4582E-04  3.4483E-02  3.4829E-02
  7.0500E-01  8.3097E-04  4.1355E-02  4.2186E-02
  7.0600E-01  5.5078E-03  9.6703E-02  1.0221E-01
  7.0700E-01  8.7169E-03  1.6787E-01  1.7658E-01
  7.0800E-01  1.8763E-02  2.3747E-01  2.5623E-01
  7.0900E-01  2.0355E-02  1.9995E-01  2.2031E-01
  7.1000E-01  1.1719E-02  1.2365E-01  1.3537E-01
  7.1100E-01  8.0436E-03  9.6427E-02  1.0447E-01
  7.1200E-01  6.8942E-03  8.5440E-02  9.2334E-02
  7.1300E-01  5.7952E-03  7.1868E-02  7.7663E-02
  7.1400E-01  4.7227E-03  6.4886E-02  6.9608E-02
  7.1500E-01  4.3281E-03  6.2346E-02  6.6674E-02
  7.1600E-01  3.7385E-03  5.6406E-02  6.0145E-02
  7.1700E-01  2.9348E-03  5.2116E-02  5.5051E-02
  7.1800E-01  2.3305E-03  5.6618E-02  5.8949E-02
  7.1900E-01  2.3351E-03  7.5246E-02  7.7581E-02
  7.2000E-01  5.3367E-03  1.0717E-01  1.1250E-01
  7.2100E-01  4.9581E-03  1.0397E-01  1.0893E-01
  7.2200E-01  7.1499E-03  1.0565E-01  1.1280E-01
  7.2300E-01  7.0070E-03  8.5341E-02  9.2348E-02
  7.2400E-01  5.7698E-03  6.4852E-02  7.0622E-02
  7.2500E-01  4.7921E-03  5.6807E-02  6.1599E-02
  7.2600E-01  4.2119E-03  5.4605E-02  5.8817E-02
  7.2700E-01  3.8983E-03  5.4175E-02  5.8073E-02
  7.2800E-01  3.7496E-03  5.4691E-02  5.8440E-02
  7.2900E-01  3.5860E-03  5.3608E-02  5.7194E-02
  7.3000E-01  3.4527E-03  5.2613E-02  5.6066E-02
  7.3100E-01  3.2361E-03  5.2340E-02  5.5576E-02
  7.3200E-01  3.1387E-03  5.3689E-02  5.6828E-02
  7.3300E-01  3.0883E-03  5.5188E-02  5.8277E-02
  7.3400E-01  3.0642E-03  5.6978E-02  6.0042E-02
  7.3500E-01  3.0889E-03  5.8087E-02  6.1176E-02
  7.3600E-01  3.0885E-03  5.8838E-02  6.1926E-02
  7.3700E-01  3.0900E-03  5.9106E-02  6.2196E-02
  7.3800E-01  3.0978E-03  5.9913E-02  6.3010E-02
  7.3900E-01  3.0928E-03  6.1120E-02  6.4213E-02
  7.4000E-01  3.1375E-03  6.3720E-02  6.6857E-02
  7.4100E-01  3.1645E-03  6.3544E-02  6.6708E-02
  7.4200E-01  3.2256E-03  6.5486E-02  6.8711E-02
  7.4300E-01  3.3237E-03  6.6318E-02  6.9642E-02
  7.4400E-01  3.3922E-03  6.6847E-02  7.0239E-02
  7.4500E-01  3.4646E-03  6.8281E-02  7.1746E-02
  7.4600E-01  3.5134E-03  6.7395E-02  7.0909E-02
  7.4700E-01  3.5945E-03  6.8474E-02  7.2069E-02
  7.4800E-01  3.5979E-03  6.7747E-02  7.1345E-02
  7.4900E-01  3.6378E-03  6.8213E-02  7.1851E-02
  7.5000E-01  3.6406E-03  6.8642E-02  7.2282E-02
  7.5100E-01  3.6582E-03  6.8439E-02  7.2097E-02
  7.5200E-01  3.6761E-03  6.8235E-02  7.1911E-02
  7.5300E-01  3.6941E-03  6.8031E-02  7.1725E-02
  7.5400E-01  3.7123E-03  6.7826E-02  7.1538E-02
  7.5500E-01  3.7308E-03  6.7620E-02  7.1350E-02
  7.5600E-01  3.7494E-03  6.7413E-02  7.1162E-02
  7.5700E-01  3.7682E-03  6.7205E-02  7.0973E-02
  7.5800E-01  3.7873E-03  6.6996E-02  7.0784E-02
  7.5900E-01  3.8065E-03  6.6787E-02  7.0593E-02
  7.6000E-01  3.8260E-03  6.6577E-02  7.0403E-02
  7.6100E-01  3.8456E-03  6.6365E-02  7.0211E-02
  7.6200E-01  3.8495E-03  6.6172E-02  7.0021E-02
  7.6300E-01  3.8527E-03  6.5979E-02  6.9831E-02
  7.6400E-01  3.8559E-03  6.5784E-02  6.9640E-02
  7.6500E-01  3.8592E-03  6.5589E-02  6.9448E-02
  7.6600E-01  3.8624E-03  6.5394E-02  6.9256E-02
  7.6700E-01  3.8657E-03  6.5197E-02  6.9063E-02
  7.6800E-01  3.8691E-03  6.5000E-02  6.8869E-02
  7.6900E-01  3.8724E-03  6.4802E-02  6.8674E-02
  7.7000E-01  3.8758E-03  6.4603E-02  6.8479E-02
  7.7100E-01  3.8792E-03  6.4403E-02  6.8282E-02
  7.7200E-01  3.8827E-03  6.4203E-02  6.8085E-02
  7.7300E-01  3.8862E-03  6.4001E-02  6.7888E-02
  7.7400E-01  3.8868E-03  6.3812E-02  6.7699E-02
  7.7500E-01  3.8859E-03  6.3629E-02  6.7515E-02
  7.7600E-01  3.8849E-03  6.3445E-02  6.7330E-02
  7.7700E-01  3.8840E-03  6.3261E-02  6.7145E-02
  7.7800E-01  3.8830E-03  6.3075E-02  6.6958E-02
  7.7900E-01  3.8821E-03  6.2889E-02  6.6771E-02
  7.8000E-01  3.8811E-03  6.2702E-02  6.6584E-02
  7.8100E-01  3.8802E-03  6.2515E-02  6.6395E-02
  7.8200E-01  3.8792E-03  6.2327E-02  6.6206E-02
  7.8300E-01  3.8783E-03  6.2138E-02  6.6016E-02
  7.8400E-01  3.8774E-03  6.1948E-02  6.5825E-02
  7.8500E-01  3.8764E-03  6.1758E-02  6.5634E-02
  7.8600E-01  3.8750E-03  6.1570E-02  6.5445E-02
  7.8700E-01  3.8705E-03  6.1400E-02  6.5271E-02
  7.8800E-01  3.8660E-03  6.1230E-02  6.5096E-02
  7.8900E-01  3.8615E-03  6.1059E-02  6.4921E-02
  7.9000E-01  3.8570E-03  6.0888E-02  6.4745E-02
  7.9100E-01  3.8524E-03  6.0716E-02  6.4568E-02
  7.9200E-01  3.8479E-03  6.0543E-02  6.4391E-02
  7.9300E-01  3.8433E-03  6.0370E-02  6.4213E-02
  7.9400E-01  3.8387E-03  6.0196E-02  6.4034E-02
  7.9500E-01  3.8341E-03  6.0021E-02  6.3855E-02
  7.9600E-01  3.8294E-03  5.9846E-02  6.3675E-02
  7.9700E-01  3.8248E-03  5.9670E-02  6.3494E-02
  7.9800E-01  3.8201E-03  5.9493E-02  6.3313E-02
  7.9900E-01  3.8164E-03  5.9357E-02  6.3174E-02
