# GGADT v1.2.1
# =-=-=
# Total cross sections as a function of energy
# -----------------------------------
# Parameter values
# -----------------------------------
# a_eff:                               9.68065E-01 micron
# ephot_min:                           6.00000E-01kiloelectron-vo
# ephot_max:                           8.00000E-01kiloelectron-vo
# nephots:                                     200
# Material file:                                   hematite
# geometry:                                        ellipsoid
# angle_mode:                                      random
# ngrain:                                      128
# norientations:                                 1
# grain-axis-z:                        1.08296E+00 micron
# grain-axis-y:                        1.08296E+00 micron
# grain-axis-z:                        7.73545E-01 micron
# grid-width:                          2.16593E+00 micron
# axes-convention:                                 ddscat
# parameter_file_name:                             large_params_random.ini
# -----------------------------------
 # [ephot (kiloelectron-volt)] [Q_sca] [Q_abs] [Q_ext]
  6.0000E-01  1.0831E+00  9.7723E-01  2.0604E+00
  6.0100E-01  1.0834E+00  9.7695E-01  2.0603E+00
  6.0200E-01  1.0837E+00  9.7666E-01  2.0603E+00
  6.0300E-01  1.0839E+00  9.7637E-01  2.0603E+00
  6.0400E-01  1.0842E+00  9.7607E-01  2.0602E+00
  6.0500E-01  1.0844E+00  9.7577E-01  2.0602E+00
  6.0600E-01  1.0847E+00  9.7546E-01  2.0602E+00
  6.0700E-01  1.0850E+00  9.7515E-01  2.0601E+00
  6.0800E-01  1.0852E+00  9.7484E-01  2.0600E+00
  6.0900E-01  1.0854E+00  9.7455E-01  2.0600E+00
  6.1000E-01  1.0856E+00  9.7426E-01  2.0598E+00
  6.1100E-01  1.0858E+00  9.7396E-01  2.0597E+00
  6.1200E-01  1.0860E+00  9.7365E-01  2.0596E+00
  6.1300E-01  1.0862E+00  9.7335E-01  2.0595E+00
  6.1400E-01  1.0863E+00  9.7303E-01  2.0594E+00
  6.1500E-01  1.0865E+00  9.7271E-01  2.0592E+00
  6.1600E-01  1.0867E+00  9.7239E-01  2.0591E+00
  6.1700E-01  1.0869E+00  9.7206E-01  2.0589E+00
  6.1800E-01  1.0870E+00  9.7174E-01  2.0588E+00
  6.1900E-01  1.0872E+00  9.7143E-01  2.0586E+00
  6.2000E-01  1.0873E+00  9.7112E-01  2.0584E+00
  6.2100E-01  1.0874E+00  9.7080E-01  2.0582E+00
  6.2200E-01  1.0875E+00  9.7048E-01  2.0580E+00
  6.2300E-01  1.0876E+00  9.7016E-01  2.0577E+00
  6.2400E-01  1.0877E+00  9.6983E-01  2.0575E+00
  6.2500E-01  1.0878E+00  9.6949E-01  2.0573E+00
  6.2600E-01  1.0879E+00  9.6915E-01  2.0570E+00
  6.2700E-01  1.0880E+00  9.6881E-01  2.0568E+00
  6.2800E-01  1.0880E+00  9.6846E-01  2.0565E+00
  6.2900E-01  1.0881E+00  9.6813E-01  2.0562E+00
  6.3000E-01  1.0881E+00  9.6779E-01  2.0559E+00
  6.3100E-01  1.0881E+00  9.6745E-01  2.0556E+00
  6.3200E-01  1.0882E+00  9.6710E-01  2.0553E+00
  6.3300E-01  1.0882E+00  9.6675E-01  2.0549E+00
  6.3400E-01  1.0882E+00  9.6639E-01  2.0546E+00
  6.3500E-01  1.0883E+00  9.6603E-01  2.0543E+00
  6.3600E-01  1.0883E+00  9.6566E-01  2.0539E+00
  6.3700E-01  1.0883E+00  9.6529E-01  2.0536E+00
  6.3800E-01  1.0883E+00  9.6491E-01  2.0533E+00
  6.3900E-01  1.0883E+00  9.6454E-01  2.0529E+00
  6.4000E-01  1.0883E+00  9.6418E-01  2.0525E+00
  6.4100E-01  1.0883E+00  9.6380E-01  2.0521E+00
  6.4200E-01  1.0883E+00  9.6342E-01  2.0517E+00
  6.4300E-01  1.0883E+00  9.6304E-01  2.0513E+00
  6.4400E-01  1.0883E+00  9.6265E-01  2.0510E+00
  6.4500E-01  1.0884E+00  9.6225E-01  2.0506E+00
  6.4600E-01  1.0884E+00  9.6184E-01  2.0502E+00
  6.4700E-01  1.0884E+00  9.6144E-01  2.0499E+00
  6.4800E-01  1.0885E+00  9.6102E-01  2.0495E+00
  6.4900E-01  1.0885E+00  9.6062E-01  2.0492E+00
  6.5000E-01  1.0886E+00  9.6022E-01  2.0488E+00
  6.5100E-01  1.0887E+00  9.5982E-01  2.0485E+00
  6.5200E-01  1.0888E+00  9.5941E-01  2.0482E+00
  6.5300E-01  1.0889E+00  9.5900E-01  2.0479E+00
  6.5400E-01  1.0891E+00  9.5858E-01  2.0477E+00
  6.5500E-01  1.0893E+00  9.5815E-01  2.0475E+00
  6.5600E-01  1.0896E+00  9.5771E-01  2.0473E+00
  6.5700E-01  1.0899E+00  9.5727E-01  2.0471E+00
  6.5800E-01  1.0902E+00  9.5683E-01  2.0470E+00
  6.5900E-01  1.0906E+00  9.5639E-01  2.0470E+00
  6.6000E-01  1.0911E+00  9.5597E-01  2.0470E+00
  6.6100E-01  1.0916E+00  9.5555E-01  2.0472E+00
  6.6200E-01  1.0923E+00  9.5512E-01  2.0474E+00
  6.6300E-01  1.0930E+00  9.5469E-01  2.0477E+00
  6.6400E-01  1.0938E+00  9.5425E-01  2.0481E+00
  6.6500E-01  1.0947E+00  9.5380E-01  2.0485E+00
  6.6600E-01  1.0958E+00  9.5335E-01  2.0491E+00
  6.6700E-01  1.0969E+00  9.5289E-01  2.0498E+00
  6.6800E-01  1.0982E+00  9.5242E-01  2.0506E+00
  6.6900E-01  1.0995E+00  9.5195E-01  2.0515E+00
  6.7000E-01  1.1013E+00  9.5152E-01  2.0528E+00
  6.7100E-01  1.1034E+00  9.5111E-01  2.0545E+00
  6.7200E-01  1.1056E+00  9.5069E-01  2.0563E+00
  6.7300E-01  1.1082E+00  9.5027E-01  2.0584E+00
  6.7400E-01  1.1109E+00  9.4985E-01  2.0607E+00
  6.7500E-01  1.1138E+00  9.4941E-01  2.0632E+00
  6.7600E-01  1.1170E+00  9.4898E-01  2.0660E+00
  6.7700E-01  1.1204E+00  9.4853E-01  2.0689E+00
  6.7800E-01  1.1240E+00  9.4808E-01  2.0721E+00
  6.7900E-01  1.1278E+00  9.4763E-01  2.0754E+00
  6.8000E-01  1.1318E+00  9.4716E-01  2.0790E+00
  6.8100E-01  1.1375E+00  9.4675E-01  2.0842E+00
  6.8200E-01  1.1437E+00  9.4634E-01  2.0901E+00
  6.8300E-01  1.1503E+00  9.4593E-01  2.0962E+00
  6.8400E-01  1.1571E+00  9.4551E-01  2.1026E+00
  6.8500E-01  1.1641E+00  9.4509E-01  2.1092E+00
  6.8600E-01  1.1712E+00  9.4467E-01  2.1159E+00
  6.8700E-01  1.1783E+00  9.4423E-01  2.1226E+00
  6.8800E-01  1.1855E+00  9.4379E-01  2.1293E+00
  6.8900E-01  1.1925E+00  9.4335E-01  2.1358E+00
  6.9000E-01  1.1993E+00  9.4290E-01  2.1422E+00
  6.9100E-01  1.2199E+00  9.3863E-01  2.1586E+00
  6.9200E-01  1.2227E+00  9.4074E-01  2.1634E+00
  6.9300E-01  1.2372E+00  9.3790E-01  2.1751E+00
  6.9400E-01  1.2373E+00  9.3846E-01  2.1758E+00
  6.9500E-01  1.2273E+00  9.4078E-01  2.1680E+00
  6.9600E-01  1.2254E+00  9.3832E-01  2.1637E+00
  6.9700E-01  1.2016E+00  9.3890E-01  2.1405E+00
  6.9800E-01  1.1672E+00  9.3800E-01  2.1052E+00
  6.9900E-01  1.1014E+00  9.3865E-01  2.0401E+00
  7.0000E-01  1.0059E+00  9.3699E-01  1.9429E+00
  7.0100E-01  8.7126E-01  9.4154E-01  1.8128E+00
  7.0200E-01  7.1482E-01  9.3993E-01  1.6548E+00
  7.0300E-01  6.5819E-01  9.4611E-01  1.6043E+00
  7.0400E-01  8.6795E-01  9.5479E-01  1.8227E+00
  7.0500E-01  1.1168E+00  9.7468E-01  2.0915E+00
  7.0600E-01  1.0248E+00  1.0102E+00  2.0350E+00
  7.0700E-01  1.0051E+00  1.0132E+00  2.0183E+00
  7.0800E-01  1.0126E+00  1.0153E+00  2.0279E+00
  7.0900E-01  1.0150E+00  1.0146E+00  2.0296E+00
  7.1000E-01  1.0199E+00  1.0127E+00  2.0326E+00
  7.1100E-01  1.0232E+00  1.0112E+00  2.0343E+00
  7.1200E-01  1.0279E+00  1.0093E+00  2.0372E+00
  7.1300E-01  1.0353E+00  1.0060E+00  2.0413E+00
  7.1400E-01  1.0396E+00  1.0038E+00  2.0434E+00
  7.1500E-01  1.0417E+00  1.0024E+00  2.0441E+00
  7.1600E-01  1.0460E+00  9.9983E-01  2.0458E+00
  7.1700E-01  1.0496E+00  9.9729E-01  2.0469E+00
  7.1800E-01  1.0379E+00  9.9949E-01  2.0374E+00
  7.1900E-01  9.9103E-01  1.0077E+00  1.9987E+00
  7.2000E-01  1.0125E+00  1.0105E+00  2.0229E+00
  7.2100E-01  1.0113E+00  1.0118E+00  2.0231E+00
  7.2200E-01  1.0209E+00  1.0109E+00  2.0319E+00
  7.2300E-01  1.0300E+00  1.0082E+00  2.0382E+00
  7.2400E-01  1.0384E+00  1.0046E+00  2.0430E+00
  7.2500E-01  1.0443E+00  1.0017E+00  2.0460E+00
  7.2600E-01  1.0471E+00  1.0000E+00  2.0471E+00
  7.2700E-01  1.0477E+00  9.9939E-01  2.0471E+00
  7.2800E-01  1.0480E+00  9.9900E-01  2.0470E+00
  7.2900E-01  1.0490E+00  9.9825E-01  2.0473E+00
  7.3000E-01  1.0502E+00  9.9741E-01  2.0476E+00
  7.3100E-01  1.0491E+00  9.9776E-01  2.0469E+00
  7.3200E-01  1.0481E+00  9.9810E-01  2.0462E+00
  7.3300E-01  1.0450E+00  9.9941E-01  2.0444E+00
  7.3400E-01  1.0426E+00  1.0002E+00  2.0429E+00
  7.3500E-01  1.0405E+00  1.0010E+00  2.0415E+00
  7.3600E-01  1.0385E+00  1.0017E+00  2.0402E+00
  7.3700E-01  1.0368E+00  1.0023E+00  2.0391E+00
  7.3800E-01  1.0348E+00  1.0029E+00  2.0378E+00
  7.3900E-01  1.0335E+00  1.0034E+00  2.0369E+00
  7.4000E-01  1.0321E+00  1.0039E+00  2.0360E+00
  7.4100E-01  1.0313E+00  1.0043E+00  2.0356E+00
  7.4200E-01  1.0306E+00  1.0046E+00  2.0352E+00
  7.4300E-01  1.0298E+00  1.0050E+00  2.0349E+00
  7.4400E-01  1.0294E+00  1.0053E+00  2.0347E+00
  7.4500E-01  1.0295E+00  1.0054E+00  2.0349E+00
  7.4600E-01  1.0296E+00  1.0055E+00  2.0351E+00
  7.4700E-01  1.0296E+00  1.0056E+00  2.0352E+00
  7.4800E-01  1.0301E+00  1.0056E+00  2.0357E+00
  7.4900E-01  1.0302E+00  1.0056E+00  2.0358E+00
  7.5000E-01  1.0307E+00  1.0055E+00  2.0363E+00
  7.5100E-01  1.0311E+00  1.0055E+00  2.0365E+00
  7.5200E-01  1.0314E+00  1.0054E+00  2.0368E+00
  7.5300E-01  1.0317E+00  1.0053E+00  2.0370E+00
  7.5400E-01  1.0320E+00  1.0053E+00  2.0373E+00
  7.5500E-01  1.0323E+00  1.0052E+00  2.0375E+00
  7.5600E-01  1.0326E+00  1.0051E+00  2.0378E+00
  7.5700E-01  1.0329E+00  1.0051E+00  2.0380E+00
  7.5800E-01  1.0333E+00  1.0050E+00  2.0383E+00
  7.5900E-01  1.0336E+00  1.0049E+00  2.0385E+00
  7.6000E-01  1.0339E+00  1.0049E+00  2.0387E+00
  7.6100E-01  1.0342E+00  1.0048E+00  2.0390E+00
  7.6200E-01  1.0344E+00  1.0047E+00  2.0391E+00
  7.6300E-01  1.0346E+00  1.0047E+00  2.0393E+00
  7.6400E-01  1.0349E+00  1.0046E+00  2.0395E+00
  7.6500E-01  1.0351E+00  1.0045E+00  2.0396E+00
  7.6600E-01  1.0353E+00  1.0045E+00  2.0398E+00
  7.6700E-01  1.0356E+00  1.0044E+00  2.0400E+00
  7.6800E-01  1.0358E+00  1.0043E+00  2.0401E+00
  7.6900E-01  1.0360E+00  1.0042E+00  2.0403E+00
  7.7000E-01  1.0363E+00  1.0042E+00  2.0404E+00
  7.7100E-01  1.0365E+00  1.0041E+00  2.0406E+00
  7.7200E-01  1.0368E+00  1.0040E+00  2.0408E+00
  7.7300E-01  1.0370E+00  1.0039E+00  2.0409E+00
  7.7400E-01  1.0372E+00  1.0039E+00  2.0411E+00
  7.7500E-01  1.0374E+00  1.0038E+00  2.0412E+00
  7.7600E-01  1.0376E+00  1.0037E+00  2.0413E+00
  7.7700E-01  1.0378E+00  1.0037E+00  2.0415E+00
  7.7800E-01  1.0380E+00  1.0036E+00  2.0416E+00
  7.7900E-01  1.0382E+00  1.0035E+00  2.0417E+00
  7.8000E-01  1.0384E+00  1.0034E+00  2.0419E+00
  7.8100E-01  1.0386E+00  1.0034E+00  2.0420E+00
  7.8200E-01  1.0388E+00  1.0033E+00  2.0421E+00
  7.8300E-01  1.0391E+00  1.0032E+00  2.0423E+00
  7.8400E-01  1.0393E+00  1.0031E+00  2.0424E+00
  7.8500E-01  1.0395E+00  1.0030E+00  2.0425E+00
  7.8600E-01  1.0397E+00  1.0030E+00  2.0426E+00
  7.8700E-01  1.0399E+00  1.0029E+00  2.0427E+00
  7.8800E-01  1.0400E+00  1.0028E+00  2.0429E+00
  7.8900E-01  1.0402E+00  1.0027E+00  2.0430E+00
  7.9000E-01  1.0404E+00  1.0027E+00  2.0431E+00
  7.9100E-01  1.0406E+00  1.0026E+00  2.0432E+00
  7.9200E-01  1.0408E+00  1.0025E+00  2.0433E+00
  7.9300E-01  1.0410E+00  1.0024E+00  2.0434E+00
  7.9400E-01  1.0411E+00  1.0024E+00  2.0435E+00
  7.9500E-01  1.0413E+00  1.0023E+00  2.0436E+00
  7.9600E-01  1.0415E+00  1.0022E+00  2.0437E+00
  7.9700E-01  1.0417E+00  1.0021E+00  2.0438E+00
  7.9800E-01  1.0419E+00  1.0020E+00  2.0439E+00
  7.9900E-01  1.0420E+00  1.0020E+00  2.0440E+00
