# GGADT v1.2.1
# =-=-=
# Total cross sections as a function of energy
# -----------------------------------
# Parameter values
# -----------------------------------
# a_eff:                               6.48710E-01 micron
# ephot_min:                           6.00000E-01kiloelectron-vo
# ephot_max:                           8.00000E-01kiloelectron-vo
# nephots:                                     200
# Material file:                                   hematite
# geometry:                                        ellipsoid
# angle_mode:                                      file
# angle_file:                                      angles
# ngrain:                                      128
# norientations:                                 1
# grain-axis-z:                        7.25704E-01 micron
# grain-axis-y:                        7.25704E-01 micron
# grain-axis-z:                        5.18360E-01 micron
# grid-width:                          1.45141E+00 micron
# axes-convention:                                 ddscat
# parameter_file_name:                             large_params_set.ini
# -----------------------------------
 # [ephot (kiloelectron-volt)] [Q_sca] [Q_abs] [Q_ext]
  6.0000E-01  1.6422E+00  1.1050E+00  2.7472E+00
  6.0100E-01  1.6452E+00  1.1041E+00  2.7494E+00
  6.0200E-01  1.6483E+00  1.1032E+00  2.7515E+00
  6.0300E-01  1.6514E+00  1.1023E+00  2.7537E+00
  6.0400E-01  1.6545E+00  1.1013E+00  2.7558E+00
  6.0500E-01  1.6577E+00  1.1004E+00  2.7581E+00
  6.0600E-01  1.6609E+00  1.0994E+00  2.7603E+00
  6.0700E-01  1.6642E+00  1.0984E+00  2.7626E+00
  6.0800E-01  1.6674E+00  1.0974E+00  2.7649E+00
  6.0900E-01  1.6707E+00  1.0965E+00  2.7672E+00
  6.1000E-01  1.6740E+00  1.0956E+00  2.7696E+00
  6.1100E-01  1.6773E+00  1.0947E+00  2.7720E+00
  6.1200E-01  1.6807E+00  1.0937E+00  2.7744E+00
  6.1300E-01  1.6841E+00  1.0928E+00  2.7768E+00
  6.1400E-01  1.6875E+00  1.0918E+00  2.7793E+00
  6.1500E-01  1.6910E+00  1.0908E+00  2.7818E+00
  6.1600E-01  1.6945E+00  1.0898E+00  2.7843E+00
  6.1700E-01  1.6980E+00  1.0888E+00  2.7868E+00
  6.1800E-01  1.7016E+00  1.0878E+00  2.7894E+00
  6.1900E-01  1.7051E+00  1.0869E+00  2.7919E+00
  6.2000E-01  1.7086E+00  1.0859E+00  2.7945E+00
  6.2100E-01  1.7122E+00  1.0849E+00  2.7971E+00
  6.2200E-01  1.7158E+00  1.0840E+00  2.7998E+00
  6.2300E-01  1.7194E+00  1.0830E+00  2.8024E+00
  6.2400E-01  1.7231E+00  1.0820E+00  2.8051E+00
  6.2500E-01  1.7268E+00  1.0810E+00  2.8077E+00
  6.2600E-01  1.7305E+00  1.0800E+00  2.8104E+00
  6.2700E-01  1.7342E+00  1.0789E+00  2.8131E+00
  6.2800E-01  1.7380E+00  1.0779E+00  2.8159E+00
  6.2900E-01  1.7417E+00  1.0769E+00  2.8186E+00
  6.3000E-01  1.7455E+00  1.0759E+00  2.8214E+00
  6.3100E-01  1.7493E+00  1.0749E+00  2.8242E+00
  6.3200E-01  1.7531E+00  1.0739E+00  2.8269E+00
  6.3300E-01  1.7569E+00  1.0728E+00  2.8297E+00
  6.3400E-01  1.7608E+00  1.0718E+00  2.8325E+00
  6.3500E-01  1.7646E+00  1.0707E+00  2.8353E+00
  6.3600E-01  1.7685E+00  1.0696E+00  2.8381E+00
  6.3700E-01  1.7724E+00  1.0685E+00  2.8409E+00
  6.3800E-01  1.7763E+00  1.0674E+00  2.8437E+00
  6.3900E-01  1.7802E+00  1.0664E+00  2.8466E+00
  6.4000E-01  1.7841E+00  1.0653E+00  2.8494E+00
  6.4100E-01  1.7880E+00  1.0642E+00  2.8522E+00
  6.4200E-01  1.7919E+00  1.0631E+00  2.8550E+00
  6.4300E-01  1.7957E+00  1.0620E+00  2.8578E+00
  6.4400E-01  1.7996E+00  1.0609E+00  2.8605E+00
  6.4500E-01  1.8035E+00  1.0598E+00  2.8632E+00
  6.4600E-01  1.8073E+00  1.0586E+00  2.8660E+00
  6.4700E-01  1.8112E+00  1.0575E+00  2.8686E+00
  6.4800E-01  1.8150E+00  1.0563E+00  2.8713E+00
  6.4900E-01  1.8187E+00  1.0552E+00  2.8739E+00
  6.5000E-01  1.8224E+00  1.0541E+00  2.8764E+00
  6.5100E-01  1.8260E+00  1.0529E+00  2.8789E+00
  6.5200E-01  1.8295E+00  1.0518E+00  2.8813E+00
  6.5300E-01  1.8330E+00  1.0506E+00  2.8836E+00
  6.5400E-01  1.8365E+00  1.0495E+00  2.8859E+00
  6.5500E-01  1.8398E+00  1.0483E+00  2.8881E+00
  6.5600E-01  1.8431E+00  1.0471E+00  2.8902E+00
  6.5700E-01  1.8464E+00  1.0459E+00  2.8922E+00
  6.5800E-01  1.8495E+00  1.0446E+00  2.8942E+00
  6.5900E-01  1.8525E+00  1.0434E+00  2.8959E+00
  6.6000E-01  1.8550E+00  1.0423E+00  2.8973E+00
  6.6100E-01  1.8574E+00  1.0411E+00  2.8986E+00
  6.6200E-01  1.8597E+00  1.0400E+00  2.8996E+00
  6.6300E-01  1.8617E+00  1.0388E+00  2.9005E+00
  6.6400E-01  1.8636E+00  1.0376E+00  2.9012E+00
  6.6500E-01  1.8653E+00  1.0364E+00  2.9017E+00
  6.6600E-01  1.8668E+00  1.0352E+00  2.9020E+00
  6.6700E-01  1.8681E+00  1.0340E+00  2.9021E+00
  6.6800E-01  1.8692E+00  1.0327E+00  2.9020E+00
  6.6900E-01  1.8701E+00  1.0315E+00  2.9016E+00
  6.7000E-01  1.8698E+00  1.0303E+00  2.9002E+00
  6.7100E-01  1.8686E+00  1.0293E+00  2.8978E+00
  6.7200E-01  1.8669E+00  1.0282E+00  2.8951E+00
  6.7300E-01  1.8647E+00  1.0271E+00  2.8918E+00
  6.7400E-01  1.8621E+00  1.0260E+00  2.8881E+00
  6.7500E-01  1.8590E+00  1.0248E+00  2.8838E+00
  6.7600E-01  1.8554E+00  1.0237E+00  2.8791E+00
  6.7700E-01  1.8514E+00  1.0225E+00  2.8739E+00
  6.7800E-01  1.8468E+00  1.0214E+00  2.8681E+00
  6.7900E-01  1.8417E+00  1.0202E+00  2.8619E+00
  6.8000E-01  1.8360E+00  1.0190E+00  2.8550E+00
  6.8100E-01  1.8258E+00  1.0179E+00  2.8438E+00
  6.8200E-01  1.8136E+00  1.0169E+00  2.8305E+00
  6.8300E-01  1.8001E+00  1.0158E+00  2.8160E+00
  6.8400E-01  1.7855E+00  1.0148E+00  2.8003E+00
  6.8500E-01  1.7697E+00  1.0137E+00  2.7834E+00
  6.8600E-01  1.7528E+00  1.0126E+00  2.7654E+00
  6.8700E-01  1.7346E+00  1.0115E+00  2.7461E+00
  6.8800E-01  1.7153E+00  1.0104E+00  2.7257E+00
  6.8900E-01  1.6948E+00  1.0093E+00  2.7041E+00
  6.9000E-01  1.6731E+00  1.0082E+00  2.6813E+00
  6.9100E-01  1.6472E+00  9.9764E-01  2.6449E+00
  6.9200E-01  1.5848E+00  1.0028E+00  2.5877E+00
  6.9300E-01  1.5339E+00  9.9585E-01  2.5297E+00
  6.9400E-01  1.4853E+00  9.9722E-01  2.4825E+00
  6.9500E-01  1.4003E+00  1.0029E+00  2.4032E+00
  6.9600E-01  1.3246E+00  9.9688E-01  2.3215E+00
  6.9700E-01  1.2256E+00  9.9829E-01  2.2239E+00
  6.9800E-01  1.1178E+00  9.9609E-01  2.1139E+00
  6.9900E-01  9.8379E-01  9.9769E-01  1.9815E+00
  7.0000E-01  8.3035E-01  9.9364E-01  1.8240E+00
  7.0100E-01  6.7540E-01  1.0048E+00  1.6802E+00
  7.0200E-01  5.1601E-01  1.0008E+00  1.5168E+00
  7.0300E-01  4.7131E-01  1.0163E+00  1.4876E+00
  7.0400E-01  6.9628E-01  1.0391E+00  1.7354E+00
  7.0500E-01  1.3753E+00  1.0969E+00  2.4722E+00
  7.0600E-01  1.2910E+00  1.2275E+00  2.5185E+00
  7.0700E-01  1.2063E+00  1.2401E+00  2.4464E+00
  7.0800E-01  1.2378E+00  1.2480E+00  2.4858E+00
  7.0900E-01  1.2482E+00  1.2454E+00  2.4936E+00
  7.1000E-01  1.2684E+00  1.2380E+00  2.5063E+00
  7.1100E-01  1.2821E+00  1.2315E+00  2.5137E+00
  7.1200E-01  1.3025E+00  1.2237E+00  2.5262E+00
  7.1300E-01  1.3397E+00  1.2104E+00  2.5501E+00
  7.1400E-01  1.3721E+00  1.2014E+00  2.5734E+00
  7.1500E-01  1.3913E+00  1.1959E+00  2.5871E+00
  7.1600E-01  1.4235E+00  1.1855E+00  2.6090E+00
  7.1700E-01  1.4307E+00  1.1756E+00  2.6063E+00
  7.1800E-01  1.3036E+00  1.1842E+00  2.4878E+00
  7.1900E-01  1.1337E+00  1.2171E+00  2.3507E+00
  7.2000E-01  1.2366E+00  1.2288E+00  2.4654E+00
  7.2100E-01  1.2325E+00  1.2343E+00  2.4668E+00
  7.2200E-01  1.2751E+00  1.2307E+00  2.5058E+00
  7.2300E-01  1.3147E+00  1.2194E+00  2.5341E+00
  7.2400E-01  1.3577E+00  1.2046E+00  2.5623E+00
  7.2500E-01  1.3962E+00  1.1931E+00  2.5893E+00
  7.2600E-01  1.4225E+00  1.1862E+00  2.6087E+00
  7.2700E-01  1.4320E+00  1.1838E+00  2.6157E+00
  7.2800E-01  1.4366E+00  1.1822E+00  2.6188E+00
  7.2900E-01  1.4448E+00  1.1793E+00  2.6241E+00
  7.3000E-01  1.4523E+00  1.1761E+00  2.6284E+00
  7.3100E-01  1.4405E+00  1.1774E+00  2.6179E+00
  7.3200E-01  1.4261E+00  1.1787E+00  2.6048E+00
  7.3300E-01  1.4031E+00  1.1839E+00  2.5869E+00
  7.3400E-01  1.3852E+00  1.1871E+00  2.5722E+00
  7.3500E-01  1.3717E+00  1.1901E+00  2.5617E+00
  7.3600E-01  1.3593E+00  1.1929E+00  2.5523E+00
  7.3700E-01  1.3495E+00  1.1952E+00  2.5447E+00
  7.3800E-01  1.3394E+00  1.1979E+00  2.5372E+00
  7.3900E-01  1.3329E+00  1.1997E+00  2.5326E+00
  7.4000E-01  1.3260E+00  1.2019E+00  2.5279E+00
  7.4100E-01  1.3229E+00  1.2035E+00  2.5264E+00
  7.4200E-01  1.3206E+00  1.2047E+00  2.5253E+00
  7.4300E-01  1.3178E+00  1.2063E+00  2.5241E+00
  7.4400E-01  1.3162E+00  1.2073E+00  2.5235E+00
  7.4500E-01  1.3179E+00  1.2079E+00  2.5257E+00
  7.4600E-01  1.3192E+00  1.2083E+00  2.5275E+00
  7.4700E-01  1.3201E+00  1.2086E+00  2.5287E+00
  7.4800E-01  1.3235E+00  1.2086E+00  2.5320E+00
  7.4900E-01  1.3243E+00  1.2088E+00  2.5330E+00
  7.5000E-01  1.3274E+00  1.2084E+00  2.5358E+00
  7.5100E-01  1.3294E+00  1.2081E+00  2.5375E+00
  7.5200E-01  1.3313E+00  1.2079E+00  2.5392E+00
  7.5300E-01  1.3333E+00  1.2076E+00  2.5409E+00
  7.5400E-01  1.3352E+00  1.2073E+00  2.5425E+00
  7.5500E-01  1.3371E+00  1.2071E+00  2.5442E+00
  7.5600E-01  1.3390E+00  1.2068E+00  2.5458E+00
  7.5700E-01  1.3409E+00  1.2065E+00  2.5474E+00
  7.5800E-01  1.3428E+00  1.2062E+00  2.5491E+00
  7.5900E-01  1.3447E+00  1.2060E+00  2.5507E+00
  7.6000E-01  1.3466E+00  1.2057E+00  2.5522E+00
  7.6100E-01  1.3484E+00  1.2054E+00  2.5538E+00
  7.6200E-01  1.3498E+00  1.2051E+00  2.5549E+00
  7.6300E-01  1.3512E+00  1.2048E+00  2.5560E+00
  7.6400E-01  1.3526E+00  1.2046E+00  2.5571E+00
  7.6500E-01  1.3540E+00  1.2043E+00  2.5582E+00
  7.6600E-01  1.3554E+00  1.2040E+00  2.5594E+00
  7.6700E-01  1.3568E+00  1.2037E+00  2.5605E+00
  7.6800E-01  1.3582E+00  1.2034E+00  2.5616E+00
  7.6900E-01  1.3596E+00  1.2031E+00  2.5627E+00
  7.7000E-01  1.3610E+00  1.2028E+00  2.5638E+00
  7.7100E-01  1.3624E+00  1.2025E+00  2.5649E+00
  7.7200E-01  1.3638E+00  1.2022E+00  2.5660E+00
  7.7300E-01  1.3653E+00  1.2019E+00  2.5672E+00
  7.7400E-01  1.3665E+00  1.2016E+00  2.5681E+00
  7.7500E-01  1.3677E+00  1.2013E+00  2.5691E+00
  7.7600E-01  1.3690E+00  1.2010E+00  2.5700E+00
  7.7700E-01  1.3702E+00  1.2007E+00  2.5709E+00
  7.7800E-01  1.3714E+00  1.2004E+00  2.5718E+00
  7.7900E-01  1.3726E+00  1.2001E+00  2.5728E+00
  7.8000E-01  1.3739E+00  1.1998E+00  2.5737E+00
  7.8100E-01  1.3751E+00  1.1995E+00  2.5747E+00
  7.8200E-01  1.3764E+00  1.1992E+00  2.5756E+00
  7.8300E-01  1.3777E+00  1.1989E+00  2.5766E+00
  7.8400E-01  1.3790E+00  1.1986E+00  2.5776E+00
  7.8500E-01  1.3803E+00  1.1983E+00  2.5785E+00
  7.8600E-01  1.3815E+00  1.1979E+00  2.5795E+00
  7.8700E-01  1.3826E+00  1.1976E+00  2.5803E+00
  7.8800E-01  1.3837E+00  1.1974E+00  2.5811E+00
  7.8900E-01  1.3848E+00  1.1971E+00  2.5819E+00
  7.9000E-01  1.3860E+00  1.1967E+00  2.5827E+00
  7.9100E-01  1.3871E+00  1.1964E+00  2.5835E+00
  7.9200E-01  1.3882E+00  1.1961E+00  2.5844E+00
  7.9300E-01  1.3894E+00  1.1958E+00  2.5852E+00
  7.9400E-01  1.3906E+00  1.1955E+00  2.5861E+00
  7.9500E-01  1.3917E+00  1.1952E+00  2.5869E+00
  7.9600E-01  1.3929E+00  1.1949E+00  2.5878E+00
  7.9700E-01  1.3941E+00  1.1945E+00  2.5886E+00
  7.9800E-01  1.3953E+00  1.1942E+00  2.5895E+00
  7.9900E-01  1.3962E+00  1.1939E+00  2.5902E+00
