# GGADT v1.2.1
# =-=-=
# Total cross sections as a function of energy
# -----------------------------------
# Parameter values
# -----------------------------------
# a_eff:                               8.72258E-01 micron
# ephot_min:                           6.00000E-01kiloelectron-vo
# ephot_max:                           8.00000E-01kiloelectron-vo
# nephots:                                     200
# Material file:                                   hematite
# geometry:                                        ellipsoid
# angle_mode:                                      random
# ngrain:                                      128
# norientations:                                 1
# grain-axis-z:                        9.75785E-01 micron
# grain-axis-y:                        9.75785E-01 micron
# grain-axis-z:                        6.96990E-01 micron
# grid-width:                          1.95157E+00 micron
# axes-convention:                                 ddscat
# parameter_file_name:                             large_params_random.ini
# -----------------------------------
 # [ephot (kiloelectron-volt)] [Q_sca] [Q_abs] [Q_ext]
  6.0000E-01  1.0442E+00  9.3633E-01  1.9805E+00
  6.0100E-01  1.0444E+00  9.3602E-01  1.9804E+00
  6.0200E-01  1.0446E+00  9.3570E-01  1.9803E+00
  6.0300E-01  1.0448E+00  9.3539E-01  1.9801E+00
  6.0400E-01  1.0449E+00  9.3506E-01  1.9800E+00
  6.0500E-01  1.0451E+00  9.3473E-01  1.9799E+00
  6.0600E-01  1.0453E+00  9.3440E-01  1.9797E+00
  6.0700E-01  1.0455E+00  9.3406E-01  1.9796E+00
  6.0800E-01  1.0457E+00  9.3372E-01  1.9794E+00
  6.0900E-01  1.0458E+00  9.3341E-01  1.9792E+00
  6.1000E-01  1.0459E+00  9.3309E-01  1.9790E+00
  6.1100E-01  1.0461E+00  9.3276E-01  1.9788E+00
  6.1200E-01  1.0462E+00  9.3243E-01  1.9786E+00
  6.1300E-01  1.0463E+00  9.3209E-01  1.9784E+00
  6.1400E-01  1.0465E+00  9.3175E-01  1.9782E+00
  6.1500E-01  1.0466E+00  9.3141E-01  1.9780E+00
  6.1600E-01  1.0467E+00  9.3106E-01  1.9778E+00
  6.1700E-01  1.0469E+00  9.3070E-01  1.9776E+00
  6.1800E-01  1.0470E+00  9.3035E-01  1.9773E+00
  6.1900E-01  1.0471E+00  9.3001E-01  1.9771E+00
  6.2000E-01  1.0472E+00  9.2967E-01  1.9768E+00
  6.2100E-01  1.0473E+00  9.2933E-01  1.9766E+00
  6.2200E-01  1.0474E+00  9.2898E-01  1.9763E+00
  6.2300E-01  1.0475E+00  9.2863E-01  1.9761E+00
  6.2400E-01  1.0476E+00  9.2827E-01  1.9758E+00
  6.2500E-01  1.0477E+00  9.2791E-01  1.9756E+00
  6.2600E-01  1.0478E+00  9.2754E-01  1.9753E+00
  6.2700E-01  1.0479E+00  9.2716E-01  1.9751E+00
  6.2800E-01  1.0480E+00  9.2679E-01  1.9748E+00
  6.2900E-01  1.0481E+00  9.2643E-01  1.9746E+00
  6.3000E-01  1.0482E+00  9.2606E-01  1.9743E+00
  6.3100E-01  1.0484E+00  9.2569E-01  1.9740E+00
  6.3200E-01  1.0485E+00  9.2531E-01  1.9738E+00
  6.3300E-01  1.0486E+00  9.2493E-01  1.9735E+00
  6.3400E-01  1.0488E+00  9.2454E-01  1.9733E+00
  6.3500E-01  1.0489E+00  9.2415E-01  1.9731E+00
  6.3600E-01  1.0491E+00  9.2375E-01  1.9728E+00
  6.3700E-01  1.0493E+00  9.2335E-01  1.9726E+00
  6.3800E-01  1.0495E+00  9.2294E-01  1.9724E+00
  6.3900E-01  1.0497E+00  9.2254E-01  1.9722E+00
  6.4000E-01  1.0499E+00  9.2215E-01  1.9720E+00
  6.4100E-01  1.0501E+00  9.2174E-01  1.9719E+00
  6.4200E-01  1.0504E+00  9.2133E-01  1.9717E+00
  6.4300E-01  1.0507E+00  9.2091E-01  1.9716E+00
  6.4400E-01  1.0510E+00  9.2049E-01  1.9715E+00
  6.4500E-01  1.0514E+00  9.2006E-01  1.9714E+00
  6.4600E-01  1.0517E+00  9.1963E-01  1.9714E+00
  6.4700E-01  1.0521E+00  9.1918E-01  1.9713E+00
  6.4800E-01  1.0526E+00  9.1873E-01  1.9713E+00
  6.4900E-01  1.0531E+00  9.1830E-01  1.9714E+00
  6.5000E-01  1.0536E+00  9.1788E-01  1.9715E+00
  6.5100E-01  1.0542E+00  9.1744E-01  1.9717E+00
  6.5200E-01  1.0549E+00  9.1700E-01  1.9719E+00
  6.5300E-01  1.0556E+00  9.1655E-01  1.9721E+00
  6.5400E-01  1.0563E+00  9.1610E-01  1.9724E+00
  6.5500E-01  1.0572E+00  9.1564E-01  1.9728E+00
  6.5600E-01  1.0581E+00  9.1517E-01  1.9732E+00
  6.5700E-01  1.0590E+00  9.1470E-01  1.9737E+00
  6.5800E-01  1.0600E+00  9.1422E-01  1.9742E+00
  6.5900E-01  1.0612E+00  9.1374E-01  1.9749E+00
  6.6000E-01  1.0625E+00  9.1329E-01  1.9758E+00
  6.6100E-01  1.0640E+00  9.1284E-01  1.9768E+00
  6.6200E-01  1.0656E+00  9.1238E-01  1.9780E+00
  6.6300E-01  1.0673E+00  9.1191E-01  1.9792E+00
  6.6400E-01  1.0691E+00  9.1144E-01  1.9805E+00
  6.6500E-01  1.0710E+00  9.1096E-01  1.9820E+00
  6.6600E-01  1.0731E+00  9.1047E-01  1.9835E+00
  6.6700E-01  1.0752E+00  9.0998E-01  1.9852E+00
  6.6800E-01  1.0775E+00  9.0948E-01  1.9870E+00
  6.6900E-01  1.0799E+00  9.0897E-01  1.9889E+00
  6.7000E-01  1.0829E+00  9.0851E-01  1.9914E+00
  6.7100E-01  1.0864E+00  9.0807E-01  1.9944E+00
  6.7200E-01  1.0900E+00  9.0762E-01  1.9976E+00
  6.7300E-01  1.0938E+00  9.0717E-01  2.0010E+00
  6.7400E-01  1.0979E+00  9.0671E-01  2.0046E+00
  6.7500E-01  1.1021E+00  9.0625E-01  2.0083E+00
  6.7600E-01  1.1065E+00  9.0578E-01  2.0122E+00
  6.7700E-01  1.1110E+00  9.0531E-01  2.0163E+00
  6.7800E-01  1.1158E+00  9.0483E-01  2.0206E+00
  6.7900E-01  1.1207E+00  9.0434E-01  2.0250E+00
  6.8000E-01  1.1257E+00  9.0384E-01  2.0295E+00
  6.8100E-01  1.1325E+00  9.0340E-01  2.0359E+00
  6.8200E-01  1.1398E+00  9.0297E-01  2.0427E+00
  6.8300E-01  1.1471E+00  9.0253E-01  2.0497E+00
  6.8400E-01  1.1545E+00  9.0208E-01  2.0566E+00
  6.8500E-01  1.1619E+00  9.0163E-01  2.0635E+00
  6.8600E-01  1.1691E+00  9.0117E-01  2.0703E+00
  6.8700E-01  1.1762E+00  9.0071E-01  2.0769E+00
  6.8800E-01  1.1829E+00  9.0024E-01  2.0832E+00
  6.8900E-01  1.1894E+00  8.9977E-01  2.0891E+00
  6.9000E-01  1.1953E+00  8.9929E-01  2.0946E+00
  6.9100E-01  1.2152E+00  8.9474E-01  2.1100E+00
  6.9200E-01  1.2135E+00  8.9698E-01  2.1105E+00
  6.9300E-01  1.2242E+00  8.9395E-01  2.1181E+00
  6.9400E-01  1.2203E+00  8.9456E-01  2.1148E+00
  6.9500E-01  1.2032E+00  8.9702E-01  2.1003E+00
  6.9600E-01  1.1946E+00  8.9441E-01  2.0890E+00
  6.9700E-01  1.1630E+00  8.9502E-01  2.0580E+00
  6.9800E-01  1.1206E+00  8.9406E-01  2.0147E+00
  6.9900E-01  1.0473E+00  8.9476E-01  1.9420E+00
  7.0000E-01  9.4599E-01  8.9299E-01  1.8390E+00
  7.0100E-01  8.1130E-01  8.9784E-01  1.7091E+00
  7.0200E-01  6.5868E-01  8.9612E-01  1.5548E+00
  7.0300E-01  6.0526E-01  9.0272E-01  1.5080E+00
  7.0400E-01  8.1065E-01  9.1203E-01  1.7227E+00
  7.0500E-01  1.0913E+00  9.3355E-01  2.0249E+00
  7.0600E-01  9.8852E-01  9.7269E-01  1.9612E+00
  7.0700E-01  9.6678E-01  9.7621E-01  1.9430E+00
  7.0800E-01  9.7531E-01  9.7879E-01  1.9541E+00
  7.0900E-01  9.7787E-01  9.7785E-01  1.9557E+00
  7.1000E-01  9.8313E-01  9.7560E-01  1.9587E+00
  7.1100E-01  9.8671E-01  9.7379E-01  1.9605E+00
  7.1200E-01  9.9193E-01  9.7166E-01  1.9636E+00
  7.1300E-01  9.9997E-01  9.6804E-01  1.9680E+00
  7.1400E-01  1.0043E+00  9.6557E-01  1.9698E+00
  7.1500E-01  1.0064E+00  9.6405E-01  1.9704E+00
  7.1600E-01  1.0111E+00  9.6116E-01  1.9723E+00
  7.1700E-01  1.0167E+00  9.5835E-01  1.9750E+00
  7.1800E-01  1.0040E+00  9.6079E-01  1.9648E+00
  7.1900E-01  9.5115E-01  9.6985E-01  1.9210E+00
  7.2000E-01  9.7488E-01  9.7305E-01  1.9479E+00
  7.2100E-01  9.7359E-01  9.7455E-01  1.9481E+00
  7.2200E-01  9.8420E-01  9.7356E-01  1.9578E+00
  7.2300E-01  9.9419E-01  9.7049E-01  1.9647E+00
  7.2400E-01  1.0033E+00  9.6645E-01  1.9697E+00
  7.2500E-01  1.0092E+00  9.6328E-01  1.9724E+00
  7.2600E-01  1.0119E+00  9.6137E-01  1.9732E+00
  7.2700E-01  1.0126E+00  9.6067E-01  1.9732E+00
  7.2800E-01  1.0130E+00  9.6024E-01  1.9733E+00
  7.2900E-01  1.0143E+00  9.5942E-01  1.9737E+00
  7.3000E-01  1.0159E+00  9.5849E-01  1.9744E+00
  7.3100E-01  1.0153E+00  9.5887E-01  1.9742E+00
  7.3200E-01  1.0146E+00  9.5924E-01  1.9738E+00
  7.3300E-01  1.0112E+00  9.6070E-01  1.9719E+00
  7.3400E-01  1.0087E+00  9.6161E-01  1.9704E+00
  7.3500E-01  1.0064E+00  9.6244E-01  1.9688E+00
  7.3600E-01  1.0041E+00  9.6325E-01  1.9673E+00
  7.3700E-01  1.0022E+00  9.6386E-01  1.9660E+00
  7.3800E-01  9.9998E-01  9.6461E-01  1.9646E+00
  7.3900E-01  9.9849E-01  9.6512E-01  1.9636E+00
  7.4000E-01  9.9683E-01  9.6571E-01  1.9625E+00
  7.4100E-01  9.9585E-01  9.6615E-01  1.9620E+00
  7.4200E-01  9.9512E-01  9.6648E-01  1.9616E+00
  7.4300E-01  9.9420E-01  9.6693E-01  1.9611E+00
  7.4400E-01  9.9368E-01  9.6720E-01  1.9609E+00
  7.4500E-01  9.9375E-01  9.6735E-01  1.9611E+00
  7.4600E-01  9.9382E-01  9.6747E-01  1.9613E+00
  7.4700E-01  9.9386E-01  9.6756E-01  1.9614E+00
  7.4800E-01  9.9438E-01  9.6754E-01  1.9619E+00
  7.4900E-01  9.9445E-01  9.6759E-01  1.9620E+00
  7.5000E-01  9.9500E-01  9.6749E-01  1.9625E+00
  7.5100E-01  9.9534E-01  9.6742E-01  1.9628E+00
  7.5200E-01  9.9567E-01  9.6735E-01  1.9630E+00
  7.5300E-01  9.9601E-01  9.6728E-01  1.9633E+00
  7.5400E-01  9.9634E-01  9.6720E-01  1.9635E+00
  7.5500E-01  9.9667E-01  9.6713E-01  1.9638E+00
  7.5600E-01  9.9700E-01  9.6706E-01  1.9641E+00
  7.5700E-01  9.9732E-01  9.6698E-01  1.9643E+00
  7.5800E-01  9.9765E-01  9.6690E-01  1.9646E+00
  7.5900E-01  9.9797E-01  9.6683E-01  1.9648E+00
  7.6000E-01  9.9829E-01  9.6675E-01  1.9650E+00
  7.6100E-01  9.9861E-01  9.6667E-01  1.9653E+00
  7.6200E-01  9.9886E-01  9.6659E-01  1.9655E+00
  7.6300E-01  9.9910E-01  9.6652E-01  1.9656E+00
  7.6400E-01  9.9934E-01  9.6644E-01  1.9658E+00
  7.6500E-01  9.9959E-01  9.6637E-01  1.9660E+00
  7.6600E-01  9.9983E-01  9.6629E-01  1.9661E+00
  7.6700E-01  1.0001E+00  9.6621E-01  1.9663E+00
  7.6800E-01  1.0003E+00  9.6613E-01  1.9665E+00
  7.6900E-01  1.0006E+00  9.6605E-01  1.9666E+00
  7.7000E-01  1.0008E+00  9.6597E-01  1.9668E+00
  7.7100E-01  1.0011E+00  9.6589E-01  1.9670E+00
  7.7200E-01  1.0013E+00  9.6580E-01  1.9671E+00
  7.7300E-01  1.0016E+00  9.6572E-01  1.9673E+00
  7.7400E-01  1.0018E+00  9.6564E-01  1.9674E+00
  7.7500E-01  1.0020E+00  9.6556E-01  1.9676E+00
  7.7600E-01  1.0022E+00  9.6548E-01  1.9677E+00
  7.7700E-01  1.0024E+00  9.6540E-01  1.9678E+00
  7.7800E-01  1.0026E+00  9.6532E-01  1.9679E+00
  7.7900E-01  1.0028E+00  9.6523E-01  1.9681E+00
  7.8000E-01  1.0031E+00  9.6515E-01  1.9682E+00
  7.8100E-01  1.0033E+00  9.6507E-01  1.9683E+00
  7.8200E-01  1.0035E+00  9.6498E-01  1.9685E+00
  7.8300E-01  1.0037E+00  9.6489E-01  1.9686E+00
  7.8400E-01  1.0039E+00  9.6481E-01  1.9687E+00
  7.8500E-01  1.0042E+00  9.6472E-01  1.9689E+00
  7.8600E-01  1.0044E+00  9.6463E-01  1.9690E+00
  7.8700E-01  1.0046E+00  9.6455E-01  1.9691E+00
  7.8800E-01  1.0047E+00  9.6446E-01  1.9692E+00
  7.8900E-01  1.0049E+00  9.6438E-01  1.9693E+00
  7.9000E-01  1.0051E+00  9.6430E-01  1.9694E+00
  7.9100E-01  1.0053E+00  9.6421E-01  1.9695E+00
  7.9200E-01  1.0055E+00  9.6413E-01  1.9696E+00
  7.9300E-01  1.0057E+00  9.6404E-01  1.9697E+00
  7.9400E-01  1.0059E+00  9.6395E-01  1.9698E+00
  7.9500E-01  1.0061E+00  9.6386E-01  1.9699E+00
  7.9600E-01  1.0063E+00  9.6377E-01  1.9700E+00
  7.9700E-01  1.0065E+00  9.6368E-01  1.9702E+00
  7.9800E-01  1.0067E+00  9.6359E-01  1.9703E+00
  7.9900E-01  1.0068E+00  9.6352E-01  1.9703E+00
