# GGADT v1.2.1
# =-=-=
# Total cross sections as a function of energy
# -----------------------------------
# Parameter values
# -----------------------------------
# a_eff:                               3.93226E-01 micron
# ephot_min:                           6.00000E-01kiloelectron-vo
# ephot_max:                           8.00000E-01kiloelectron-vo
# nephots:                                     200
# Material file:                                   hematite
# geometry:                                        ellipsoid
# angle_mode:                                      random
# ngrain:                                      128
# norientations:                                 1
# grain-axis-z:                        4.39897E-01 micron
# grain-axis-y:                        4.39897E-01 micron
# grain-axis-z:                        3.14212E-01 micron
# grid-width:                          8.79795E-01 micron
# axes-convention:                                 ddscat
# parameter_file_name:                             large_params_random.ini
# -----------------------------------
 # [ephot (kiloelectron-volt)] [Q_sca] [Q_abs] [Q_ext]
  6.0000E-01  1.7028E+00  8.9017E-01  2.5930E+00
  6.0100E-01  1.7042E+00  8.8898E-01  2.5932E+00
  6.0200E-01  1.7056E+00  8.8778E-01  2.5934E+00
  6.0300E-01  1.7070E+00  8.8656E-01  2.5936E+00
  6.0400E-01  1.7085E+00  8.8534E-01  2.5938E+00
  6.0500E-01  1.7099E+00  8.8410E-01  2.5940E+00
  6.0600E-01  1.7113E+00  8.8284E-01  2.5941E+00
  6.0700E-01  1.7127E+00  8.8157E-01  2.5943E+00
  6.0800E-01  1.7141E+00  8.8030E-01  2.5944E+00
  6.0900E-01  1.7149E+00  8.7912E-01  2.5941E+00
  6.1000E-01  1.7158E+00  8.7793E-01  2.5937E+00
  6.1100E-01  1.7166E+00  8.7673E-01  2.5933E+00
  6.1200E-01  1.7174E+00  8.7552E-01  2.5929E+00
  6.1300E-01  1.7182E+00  8.7429E-01  2.5925E+00
  6.1400E-01  1.7190E+00  8.7305E-01  2.5921E+00
  6.1500E-01  1.7198E+00  8.7180E-01  2.5916E+00
  6.1600E-01  1.7206E+00  8.7054E-01  2.5911E+00
  6.1700E-01  1.7213E+00  8.6926E-01  2.5906E+00
  6.1800E-01  1.7219E+00  8.6799E-01  2.5899E+00
  6.1900E-01  1.7221E+00  8.6680E-01  2.5889E+00
  6.2000E-01  1.7223E+00  8.6560E-01  2.5879E+00
  6.2100E-01  1.7224E+00  8.6439E-01  2.5868E+00
  6.2200E-01  1.7225E+00  8.6317E-01  2.5856E+00
  6.2300E-01  1.7225E+00  8.6193E-01  2.5845E+00
  6.2400E-01  1.7226E+00  8.6068E-01  2.5833E+00
  6.2500E-01  1.7226E+00  8.5942E-01  2.5820E+00
  6.2600E-01  1.7226E+00  8.5814E-01  2.5807E+00
  6.2700E-01  1.7226E+00  8.5685E-01  2.5794E+00
  6.2800E-01  1.7224E+00  8.5557E-01  2.5779E+00
  6.2900E-01  1.7217E+00  8.5435E-01  2.5761E+00
  6.3000E-01  1.7210E+00  8.5311E-01  2.5741E+00
  6.3100E-01  1.7203E+00  8.5185E-01  2.5721E+00
  6.3200E-01  1.7195E+00  8.5059E-01  2.5701E+00
  6.3300E-01  1.7187E+00  8.4931E-01  2.5680E+00
  6.3400E-01  1.7179E+00  8.4802E-01  2.5659E+00
  6.3500E-01  1.7170E+00  8.4672E-01  2.5637E+00
  6.3600E-01  1.7160E+00  8.4540E-01  2.5614E+00
  6.3700E-01  1.7150E+00  8.4407E-01  2.5591E+00
  6.3800E-01  1.7139E+00  8.4273E-01  2.5567E+00
  6.3900E-01  1.7121E+00  8.4145E-01  2.5536E+00
  6.4000E-01  1.7103E+00  8.4016E-01  2.5504E+00
  6.4100E-01  1.7083E+00  8.3886E-01  2.5472E+00
  6.4200E-01  1.7063E+00  8.3754E-01  2.5439E+00
  6.4300E-01  1.7043E+00  8.3620E-01  2.5405E+00
  6.4400E-01  1.7021E+00  8.3486E-01  2.5370E+00
  6.4500E-01  1.6999E+00  8.3350E-01  2.5334E+00
  6.4600E-01  1.6977E+00  8.3213E-01  2.5298E+00
  6.4700E-01  1.6953E+00  8.3074E-01  2.5261E+00
  6.4800E-01  1.6929E+00  8.2934E-01  2.5223E+00
  6.4900E-01  1.6896E+00  8.2800E-01  2.5176E+00
  6.5000E-01  1.6858E+00  8.2668E-01  2.5125E+00
  6.5100E-01  1.6820E+00  8.2534E-01  2.5073E+00
  6.5200E-01  1.6781E+00  8.2399E-01  2.5021E+00
  6.5300E-01  1.6740E+00  8.2262E-01  2.4967E+00
  6.5400E-01  1.6699E+00  8.2125E-01  2.4911E+00
  6.5500E-01  1.6657E+00  8.1985E-01  2.4855E+00
  6.5600E-01  1.6613E+00  8.1845E-01  2.4798E+00
  6.5700E-01  1.6569E+00  8.1703E-01  2.4739E+00
  6.5800E-01  1.6523E+00  8.1560E-01  2.4679E+00
  6.5900E-01  1.6470E+00  8.1419E-01  2.4612E+00
  6.6000E-01  1.6402E+00  8.1287E-01  2.4531E+00
  6.6100E-01  1.6332E+00  8.1154E-01  2.4447E+00
  6.6200E-01  1.6260E+00  8.1019E-01  2.4362E+00
  6.6300E-01  1.6187E+00  8.0884E-01  2.4275E+00
  6.6400E-01  1.6112E+00  8.0747E-01  2.4187E+00
  6.6500E-01  1.6036E+00  8.0608E-01  2.4097E+00
  6.6600E-01  1.5958E+00  8.0469E-01  2.4004E+00
  6.6700E-01  1.5878E+00  8.0328E-01  2.3911E+00
  6.6800E-01  1.5796E+00  8.0185E-01  2.3815E+00
  6.6900E-01  1.5713E+00  8.0042E-01  2.3717E+00
  6.7000E-01  1.5602E+00  7.9911E-01  2.3593E+00
  6.7100E-01  1.5473E+00  7.9788E-01  2.3452E+00
  6.7200E-01  1.5342E+00  7.9664E-01  2.3309E+00
  6.7300E-01  1.5208E+00  7.9538E-01  2.3162E+00
  6.7400E-01  1.5072E+00  7.9412E-01  2.3013E+00
  6.7500E-01  1.4933E+00  7.9284E-01  2.2861E+00
  6.7600E-01  1.4791E+00  7.9155E-01  2.2707E+00
  6.7700E-01  1.4647E+00  7.9025E-01  2.2549E+00
  6.7800E-01  1.4500E+00  7.8894E-01  2.2389E+00
  6.7900E-01  1.4351E+00  7.8762E-01  2.2227E+00
  6.8000E-01  1.4199E+00  7.8629E-01  2.2062E+00
  6.8100E-01  1.3976E+00  7.8510E-01  2.1827E+00
  6.8200E-01  1.3734E+00  7.8393E-01  2.1573E+00
  6.8300E-01  1.3487E+00  7.8276E-01  2.1315E+00
  6.8400E-01  1.3237E+00  7.8158E-01  2.1052E+00
  6.8500E-01  1.2983E+00  7.8038E-01  2.0786E+00
  6.8600E-01  1.2725E+00  7.7918E-01  2.0517E+00
  6.8700E-01  1.2464E+00  7.7797E-01  2.0244E+00
  6.8800E-01  1.2200E+00  7.7674E-01  1.9968E+00
  6.8900E-01  1.1933E+00  7.7551E-01  1.9688E+00
  6.9000E-01  1.1664E+00  7.7427E-01  1.9407E+00
  6.9100E-01  1.1233E+00  7.6272E-01  1.8860E+00
  6.9200E-01  1.0653E+00  7.6836E-01  1.8336E+00
  6.9300E-01  1.0085E+00  7.6077E-01  1.7693E+00
  6.9400E-01  9.6519E-01  7.6226E-01  1.7274E+00
  6.9500E-01  8.9552E-01  7.6846E-01  1.6640E+00
  6.9600E-01  8.2861E-01  7.6189E-01  1.5905E+00
  6.9700E-01  7.5210E-01  7.6342E-01  1.5155E+00
  6.9800E-01  6.7125E-01  7.6103E-01  1.4323E+00
  6.9900E-01  5.7822E-01  7.6277E-01  1.3410E+00
  7.0000E-01  4.7562E-01  7.5838E-01  1.2340E+00
  7.0100E-01  3.8109E-01  7.7054E-01  1.1516E+00
  7.0200E-01  2.8466E-01  7.6617E-01  1.0508E+00
  7.0300E-01  2.6072E-01  7.8327E-01  1.0440E+00
  7.0400E-01  4.0211E-01  8.0916E-01  1.2113E+00
  7.0500E-01  9.6605E-01  8.7964E-01  1.8457E+00
  7.0600E-01  1.2196E+00  1.0840E+00  2.3036E+00
  7.0700E-01  1.0369E+00  1.1095E+00  2.1464E+00
  7.0800E-01  1.1042E+00  1.1267E+00  2.2309E+00
  7.0900E-01  1.1249E+00  1.1209E+00  2.2457E+00
  7.1000E-01  1.1714E+00  1.1051E+00  2.2765E+00
  7.1100E-01  1.2065E+00  1.0920E+00  2.2986E+00
  7.1200E-01  1.2577E+00  1.0767E+00  2.3344E+00
  7.1300E-01  1.3282E+00  1.0514E+00  2.3796E+00
  7.1400E-01  1.3401E+00  1.0351E+00  2.3752E+00
  7.1500E-01  1.3297E+00  1.0255E+00  2.3552E+00
  7.1600E-01  1.3243E+00  1.0079E+00  2.3322E+00
  7.1700E-01  1.2462E+00  9.9183E-01  2.2380E+00
  7.1800E-01  1.0398E+00  1.0058E+00  2.0456E+00
  7.1900E-01  8.8494E-01  1.0639E+00  1.9488E+00
  7.2000E-01  1.0684E+00  1.0866E+00  2.1550E+00
  7.2100E-01  1.0761E+00  1.0975E+00  2.1737E+00
  7.2200E-01  1.1732E+00  1.0904E+00  2.2636E+00
  7.2300E-01  1.2729E+00  1.0683E+00  2.3412E+00
  7.2400E-01  1.3530E+00  1.0408E+00  2.3938E+00
  7.2500E-01  1.3903E+00  1.0207E+00  2.4110E+00
  7.2600E-01  1.3887E+00  1.0092E+00  2.3979E+00
  7.2700E-01  1.3728E+00  1.0051E+00  2.3779E+00
  7.2800E-01  1.3569E+00  1.0026E+00  2.3595E+00
  7.2900E-01  1.3460E+00  9.9785E-01  2.3439E+00
  7.3000E-01  1.3312E+00  9.9260E-01  2.3238E+00
  7.3100E-01  1.2933E+00  9.9474E-01  2.2880E+00
  7.3200E-01  1.2556E+00  9.9687E-01  2.2525E+00
  7.3300E-01  1.2263E+00  1.0052E+00  2.2315E+00
  7.3400E-01  1.2001E+00  1.0106E+00  2.2107E+00
  7.3500E-01  1.1845E+00  1.0156E+00  2.2002E+00
  7.3600E-01  1.1714E+00  1.0205E+00  2.1919E+00
  7.3700E-01  1.1607E+00  1.0243E+00  2.1850E+00
  7.3800E-01  1.1518E+00  1.0290E+00  2.1808E+00
  7.3900E-01  1.1468E+00  1.0323E+00  2.1791E+00
  7.4000E-01  1.1423E+00  1.0361E+00  2.1784E+00
  7.4100E-01  1.1434E+00  1.0389E+00  2.1823E+00
  7.4200E-01  1.1444E+00  1.0411E+00  2.1855E+00
  7.4300E-01  1.1464E+00  1.0440E+00  2.1904E+00
  7.4400E-01  1.1479E+00  1.0458E+00  2.1937E+00
  7.4500E-01  1.1551E+00  1.0468E+00  2.2019E+00
  7.4600E-01  1.1611E+00  1.0476E+00  2.2087E+00
  7.4700E-01  1.1653E+00  1.0482E+00  2.2135E+00
  7.4800E-01  1.1739E+00  1.0480E+00  2.2219E+00
  7.4900E-01  1.1775E+00  1.0484E+00  2.2259E+00
  7.5000E-01  1.1840E+00  1.0477E+00  2.2318E+00
  7.5100E-01  1.1880E+00  1.0473E+00  2.2352E+00
  7.5200E-01  1.1919E+00  1.0468E+00  2.2387E+00
  7.5300E-01  1.1959E+00  1.0463E+00  2.2422E+00
  7.5400E-01  1.1999E+00  1.0458E+00  2.2457E+00
  7.5500E-01  1.2039E+00  1.0453E+00  2.2493E+00
  7.5600E-01  1.2080E+00  1.0449E+00  2.2528E+00
  7.5700E-01  1.2121E+00  1.0444E+00  2.2564E+00
  7.5800E-01  1.2162E+00  1.0438E+00  2.2600E+00
  7.5900E-01  1.2203E+00  1.0433E+00  2.2636E+00
  7.6000E-01  1.2245E+00  1.0428E+00  2.2673E+00
  7.6100E-01  1.2287E+00  1.0423E+00  2.2710E+00
  7.6200E-01  1.2314E+00  1.0418E+00  2.2732E+00
  7.6300E-01  1.2340E+00  1.0413E+00  2.2753E+00
  7.6400E-01  1.2367E+00  1.0408E+00  2.2775E+00
  7.6500E-01  1.2393E+00  1.0403E+00  2.2797E+00
  7.6600E-01  1.2421E+00  1.0398E+00  2.2819E+00
  7.6700E-01  1.2448E+00  1.0393E+00  2.2841E+00
  7.6800E-01  1.2475E+00  1.0388E+00  2.2863E+00
  7.6900E-01  1.2503E+00  1.0383E+00  2.2886E+00
  7.7000E-01  1.2531E+00  1.0377E+00  2.2908E+00
  7.7100E-01  1.2559E+00  1.0372E+00  2.2931E+00
  7.7200E-01  1.2588E+00  1.0366E+00  2.2954E+00
  7.7300E-01  1.2617E+00  1.0361E+00  2.2978E+00
  7.7400E-01  1.2640E+00  1.0356E+00  2.2996E+00
  7.7500E-01  1.2662E+00  1.0351E+00  2.3012E+00
  7.7600E-01  1.2683E+00  1.0346E+00  2.3029E+00
  7.7700E-01  1.2705E+00  1.0340E+00  2.3045E+00
  7.7800E-01  1.2726E+00  1.0335E+00  2.3062E+00
  7.7900E-01  1.2748E+00  1.0330E+00  2.3078E+00
  7.8000E-01  1.2771E+00  1.0325E+00  2.3095E+00
  7.8100E-01  1.2793E+00  1.0319E+00  2.3112E+00
  7.8200E-01  1.2816E+00  1.0314E+00  2.3129E+00
  7.8300E-01  1.2838E+00  1.0308E+00  2.3146E+00
  7.8400E-01  1.2861E+00  1.0303E+00  2.3164E+00
  7.8500E-01  1.2884E+00  1.0297E+00  2.3181E+00
  7.8600E-01  1.2907E+00  1.0291E+00  2.3198E+00
  7.8700E-01  1.2923E+00  1.0286E+00  2.3209E+00
  7.8800E-01  1.2939E+00  1.0281E+00  2.3220E+00
  7.8900E-01  1.2955E+00  1.0276E+00  2.3231E+00
  7.9000E-01  1.2972E+00  1.0271E+00  2.3242E+00
  7.9100E-01  1.2989E+00  1.0265E+00  2.3254E+00
  7.9200E-01  1.3005E+00  1.0260E+00  2.3265E+00
  7.9300E-01  1.3022E+00  1.0254E+00  2.3277E+00
  7.9400E-01  1.3039E+00  1.0249E+00  2.3288E+00
  7.9500E-01  1.3057E+00  1.0243E+00  2.3300E+00
  7.9600E-01  1.3074E+00  1.0238E+00  2.3312E+00
  7.9700E-01  1.3092E+00  1.0232E+00  2.3324E+00
  7.9800E-01  1.3109E+00  1.0226E+00  2.3336E+00
  7.9900E-01  1.3123E+00  1.0222E+00  2.3345E+00
