# GGADT v1.2.1
# =-=-=
# Total cross sections as a function of energy
# -----------------------------------
# Parameter values
# -----------------------------------
# a_eff:                               7.76452E-01 micron
# ephot_min:                           6.00000E-01kiloelectron-vo
# ephot_max:                           8.00000E-01kiloelectron-vo
# nephots:                                     200
# Material file:                                   hematite
# geometry:                                        ellipsoid
# angle_mode:                                      random
# ngrain:                                      128
# norientations:                                 1
# grain-axis-z:                        8.68608E-01 micron
# grain-axis-y:                        8.68608E-01 micron
# grain-axis-z:                        6.20434E-01 micron
# grid-width:                          1.73722E+00 micron
# axes-convention:                                 ddscat
# parameter_file_name:                             large_params_random.ini
# -----------------------------------
 # [ephot (kiloelectron-volt)] [Q_sca] [Q_abs] [Q_ext]
  6.0000E-01  1.2892E+00  1.0691E+00  2.3582E+00
  6.0100E-01  1.2904E+00  1.0685E+00  2.3589E+00
  6.0200E-01  1.2917E+00  1.0679E+00  2.3596E+00
  6.0300E-01  1.2929E+00  1.0673E+00  2.3602E+00
  6.0400E-01  1.2943E+00  1.0667E+00  2.3609E+00
  6.0500E-01  1.2956E+00  1.0661E+00  2.3617E+00
  6.0600E-01  1.2970E+00  1.0654E+00  2.3624E+00
  6.0700E-01  1.2984E+00  1.0648E+00  2.3632E+00
  6.0800E-01  1.2998E+00  1.0642E+00  2.3640E+00
  6.0900E-01  1.3013E+00  1.0636E+00  2.3649E+00
  6.1000E-01  1.3029E+00  1.0630E+00  2.3659E+00
  6.1100E-01  1.3045E+00  1.0624E+00  2.3668E+00
  6.1200E-01  1.3061E+00  1.0617E+00  2.3679E+00
  6.1300E-01  1.3078E+00  1.0611E+00  2.3689E+00
  6.1400E-01  1.3095E+00  1.0605E+00  2.3700E+00
  6.1500E-01  1.3112E+00  1.0598E+00  2.3711E+00
  6.1600E-01  1.3130E+00  1.0592E+00  2.3722E+00
  6.1700E-01  1.3148E+00  1.0585E+00  2.3733E+00
  6.1800E-01  1.3167E+00  1.0579E+00  2.3746E+00
  6.1900E-01  1.3187E+00  1.0572E+00  2.3759E+00
  6.2000E-01  1.3207E+00  1.0566E+00  2.3773E+00
  6.2100E-01  1.3227E+00  1.0560E+00  2.3787E+00
  6.2200E-01  1.3248E+00  1.0553E+00  2.3801E+00
  6.2300E-01  1.3270E+00  1.0547E+00  2.3816E+00
  6.2400E-01  1.3292E+00  1.0540E+00  2.3832E+00
  6.2500E-01  1.3314E+00  1.0533E+00  2.3847E+00
  6.2600E-01  1.3337E+00  1.0527E+00  2.3863E+00
  6.2700E-01  1.3360E+00  1.0520E+00  2.3880E+00
  6.2800E-01  1.3384E+00  1.0513E+00  2.3897E+00
  6.2900E-01  1.3409E+00  1.0506E+00  2.3916E+00
  6.3000E-01  1.3435E+00  1.0499E+00  2.3935E+00
  6.3100E-01  1.3462E+00  1.0493E+00  2.3955E+00
  6.3200E-01  1.3489E+00  1.0486E+00  2.3975E+00
  6.3300E-01  1.3517E+00  1.0479E+00  2.3995E+00
  6.3400E-01  1.3545E+00  1.0472E+00  2.4016E+00
  6.3500E-01  1.3573E+00  1.0464E+00  2.4038E+00
  6.3600E-01  1.3603E+00  1.0457E+00  2.4060E+00
  6.3700E-01  1.3633E+00  1.0450E+00  2.4082E+00
  6.3800E-01  1.3663E+00  1.0442E+00  2.4106E+00
  6.3900E-01  1.3697E+00  1.0435E+00  2.4132E+00
  6.4000E-01  1.3730E+00  1.0428E+00  2.4158E+00
  6.4100E-01  1.3765E+00  1.0421E+00  2.4186E+00
  6.4200E-01  1.3800E+00  1.0413E+00  2.4213E+00
  6.4300E-01  1.3836E+00  1.0406E+00  2.4242E+00
  6.4400E-01  1.3872E+00  1.0398E+00  2.4271E+00
  6.4500E-01  1.3910E+00  1.0390E+00  2.4300E+00
  6.4600E-01  1.3947E+00  1.0383E+00  2.4330E+00
  6.4700E-01  1.3986E+00  1.0375E+00  2.4360E+00
  6.4800E-01  1.4025E+00  1.0367E+00  2.4391E+00
  6.4900E-01  1.4067E+00  1.0359E+00  2.4426E+00
  6.5000E-01  1.4112E+00  1.0351E+00  2.4463E+00
  6.5100E-01  1.4156E+00  1.0343E+00  2.4500E+00
  6.5200E-01  1.4202E+00  1.0335E+00  2.4537E+00
  6.5300E-01  1.4248E+00  1.0327E+00  2.4575E+00
  6.5400E-01  1.4294E+00  1.0319E+00  2.4614E+00
  6.5500E-01  1.4342E+00  1.0311E+00  2.4653E+00
  6.5600E-01  1.4389E+00  1.0303E+00  2.4692E+00
  6.5700E-01  1.4438E+00  1.0294E+00  2.4732E+00
  6.5800E-01  1.4487E+00  1.0286E+00  2.4773E+00
  6.5900E-01  1.4538E+00  1.0278E+00  2.4816E+00
  6.6000E-01  1.4595E+00  1.0270E+00  2.4864E+00
  6.6100E-01  1.4651E+00  1.0262E+00  2.4913E+00
  6.6200E-01  1.4708E+00  1.0254E+00  2.4961E+00
  6.6300E-01  1.4765E+00  1.0245E+00  2.5010E+00
  6.6400E-01  1.4822E+00  1.0237E+00  2.5059E+00
  6.6500E-01  1.4880E+00  1.0229E+00  2.5108E+00
  6.6600E-01  1.4937E+00  1.0220E+00  2.5157E+00
  6.6700E-01  1.4995E+00  1.0211E+00  2.5206E+00
  6.6800E-01  1.5052E+00  1.0203E+00  2.5255E+00
  6.6900E-01  1.5110E+00  1.0194E+00  2.5303E+00
  6.7000E-01  1.5172E+00  1.0186E+00  2.5358E+00
  6.7100E-01  1.5237E+00  1.0178E+00  2.5415E+00
  6.7200E-01  1.5301E+00  1.0170E+00  2.5471E+00
  6.7300E-01  1.5362E+00  1.0163E+00  2.5525E+00
  6.7400E-01  1.5422E+00  1.0155E+00  2.5577E+00
  6.7500E-01  1.5480E+00  1.0147E+00  2.5626E+00
  6.7600E-01  1.5535E+00  1.0138E+00  2.5674E+00
  6.7700E-01  1.5588E+00  1.0130E+00  2.5718E+00
  6.7800E-01  1.5638E+00  1.0122E+00  2.5760E+00
  6.7900E-01  1.5686E+00  1.0114E+00  2.5799E+00
  6.8000E-01  1.5730E+00  1.0105E+00  2.5835E+00
  6.8100E-01  1.5773E+00  1.0097E+00  2.5871E+00
  6.8200E-01  1.5809E+00  1.0090E+00  2.5899E+00
  6.8300E-01  1.5835E+00  1.0082E+00  2.5917E+00
  6.8400E-01  1.5851E+00  1.0075E+00  2.5926E+00
  6.8500E-01  1.5856E+00  1.0067E+00  2.5924E+00
  6.8600E-01  1.5851E+00  1.0059E+00  2.5910E+00
  6.8700E-01  1.5833E+00  1.0051E+00  2.5885E+00
  6.8800E-01  1.5804E+00  1.0043E+00  2.5847E+00
  6.8900E-01  1.5761E+00  1.0035E+00  2.5797E+00
  6.9000E-01  1.5706E+00  1.0027E+00  2.5733E+00
  6.9100E-01  1.5746E+00  9.9503E-01  2.5697E+00
  6.9200E-01  1.5402E+00  9.9880E-01  2.5390E+00
  6.9300E-01  1.5212E+00  9.9371E-01  2.5149E+00
  6.9400E-01  1.4918E+00  9.9472E-01  2.4866E+00
  6.9500E-01  1.4330E+00  9.9888E-01  2.4318E+00
  6.9600E-01  1.3851E+00  9.9447E-01  2.3795E+00
  6.9700E-01  1.3087E+00  9.9550E-01  2.3042E+00
  6.9800E-01  1.2210E+00  9.9389E-01  2.2149E+00
  6.9900E-01  1.1007E+00  9.9506E-01  2.0958E+00
  7.0000E-01  9.5469E-01  9.9209E-01  1.9468E+00
  7.0100E-01  7.9185E-01  1.0003E+00  1.7921E+00
  7.0200E-01  6.1963E-01  9.9735E-01  1.6170E+00
  7.0300E-01  5.6646E-01  1.0086E+00  1.5750E+00
  7.0400E-01  8.0345E-01  1.0247E+00  1.8282E+00
  7.0500E-01  1.3312E+00  1.0638E+00  2.3951E+00
  7.0600E-01  1.1746E+00  1.1414E+00  2.3160E+00
  7.0700E-01  1.1300E+00  1.1483E+00  2.2783E+00
  7.0800E-01  1.1469E+00  1.1527E+00  2.2997E+00
  7.0900E-01  1.1526E+00  1.1512E+00  2.3038E+00
  7.1000E-01  1.1639E+00  1.1471E+00  2.3110E+00
  7.1100E-01  1.1712E+00  1.1436E+00  2.3147E+00
  7.1200E-01  1.1813E+00  1.1393E+00  2.3206E+00
  7.1300E-01  1.1955E+00  1.1320E+00  2.3275E+00
  7.1400E-01  1.2063E+00  1.1269E+00  2.3332E+00
  7.1500E-01  1.2152E+00  1.1239E+00  2.3391E+00
  7.1600E-01  1.2334E+00  1.1180E+00  2.3514E+00
  7.1700E-01  1.2547E+00  1.1123E+00  2.3670E+00
  7.1800E-01  1.2081E+00  1.1172E+00  2.3253E+00
  7.1900E-01  1.0949E+00  1.1357E+00  2.2305E+00
  7.2000E-01  1.1473E+00  1.1421E+00  2.2894E+00
  7.2100E-01  1.1444E+00  1.1451E+00  2.2894E+00
  7.2200E-01  1.1661E+00  1.1431E+00  2.3092E+00
  7.2300E-01  1.1853E+00  1.1370E+00  2.3223E+00
  7.2400E-01  1.2015E+00  1.1287E+00  2.3303E+00
  7.2500E-01  1.2144E+00  1.1223E+00  2.3367E+00
  7.2600E-01  1.2255E+00  1.1184E+00  2.3439E+00
  7.2700E-01  1.2317E+00  1.1170E+00  2.3487E+00
  7.2800E-01  1.2363E+00  1.1161E+00  2.3524E+00
  7.2900E-01  1.2428E+00  1.1144E+00  2.3572E+00
  7.3000E-01  1.2503E+00  1.1126E+00  2.3629E+00
  7.3100E-01  1.2504E+00  1.1133E+00  2.3637E+00
  7.3200E-01  1.2488E+00  1.1141E+00  2.3628E+00
  7.3300E-01  1.2386E+00  1.1170E+00  2.3556E+00
  7.3400E-01  1.2313E+00  1.1189E+00  2.3502E+00
  7.3500E-01  1.2247E+00  1.1206E+00  2.3452E+00
  7.3600E-01  1.2182E+00  1.1222E+00  2.3405E+00
  7.3700E-01  1.2132E+00  1.1235E+00  2.3366E+00
  7.3800E-01  1.2074E+00  1.1250E+00  2.3324E+00
  7.3900E-01  1.2035E+00  1.1260E+00  2.3296E+00
  7.4000E-01  1.1993E+00  1.1272E+00  2.3265E+00
  7.4100E-01  1.1968E+00  1.1281E+00  2.3249E+00
  7.4200E-01  1.1949E+00  1.1288E+00  2.3238E+00
  7.4300E-01  1.1926E+00  1.1297E+00  2.3223E+00
  7.4400E-01  1.1912E+00  1.1303E+00  2.3215E+00
  7.4500E-01  1.1913E+00  1.1306E+00  2.3219E+00
  7.4600E-01  1.1913E+00  1.1308E+00  2.3221E+00
  7.4700E-01  1.1913E+00  1.1310E+00  2.3223E+00
  7.4800E-01  1.1924E+00  1.1310E+00  2.3233E+00
  7.4900E-01  1.1924E+00  1.1311E+00  2.3235E+00
  7.5000E-01  1.1936E+00  1.1309E+00  2.3245E+00
  7.5100E-01  1.1944E+00  1.1307E+00  2.3251E+00
  7.5200E-01  1.1951E+00  1.1306E+00  2.3257E+00
  7.5300E-01  1.1959E+00  1.1304E+00  2.3263E+00
  7.5400E-01  1.1966E+00  1.1303E+00  2.3269E+00
  7.5500E-01  1.1973E+00  1.1301E+00  2.3274E+00
  7.5600E-01  1.1980E+00  1.1300E+00  2.3280E+00
  7.5700E-01  1.1987E+00  1.1298E+00  2.3285E+00
  7.5800E-01  1.1994E+00  1.1297E+00  2.3290E+00
  7.5900E-01  1.2000E+00  1.1295E+00  2.3295E+00
  7.6000E-01  1.2007E+00  1.1294E+00  2.3300E+00
  7.6100E-01  1.2013E+00  1.1292E+00  2.3305E+00
  7.6200E-01  1.2018E+00  1.1290E+00  2.3309E+00
  7.6300E-01  1.2024E+00  1.1289E+00  2.3313E+00
  7.6400E-01  1.2029E+00  1.1287E+00  2.3316E+00
  7.6500E-01  1.2034E+00  1.1286E+00  2.3320E+00
  7.6600E-01  1.2039E+00  1.1284E+00  2.3324E+00
  7.6700E-01  1.2045E+00  1.1283E+00  2.3327E+00
  7.6800E-01  1.2050E+00  1.1281E+00  2.3331E+00
  7.6900E-01  1.2055E+00  1.1279E+00  2.3334E+00
  7.7000E-01  1.2060E+00  1.1278E+00  2.3338E+00
  7.7100E-01  1.2065E+00  1.1276E+00  2.3341E+00
  7.7200E-01  1.2070E+00  1.1274E+00  2.3345E+00
  7.7300E-01  1.2076E+00  1.1273E+00  2.3348E+00
  7.7400E-01  1.2080E+00  1.1271E+00  2.3351E+00
  7.7500E-01  1.2085E+00  1.1269E+00  2.3354E+00
  7.7600E-01  1.2090E+00  1.1268E+00  2.3357E+00
  7.7700E-01  1.2094E+00  1.1266E+00  2.3360E+00
  7.7800E-01  1.2099E+00  1.1264E+00  2.3363E+00
  7.7900E-01  1.2103E+00  1.1263E+00  2.3366E+00
  7.8000E-01  1.2108E+00  1.1261E+00  2.3369E+00
  7.8100E-01  1.2113E+00  1.1259E+00  2.3372E+00
  7.8200E-01  1.2117E+00  1.1257E+00  2.3375E+00
  7.8300E-01  1.2122E+00  1.1256E+00  2.3378E+00
  7.8400E-01  1.2127E+00  1.1254E+00  2.3381E+00
  7.8500E-01  1.2132E+00  1.1252E+00  2.3384E+00
  7.8600E-01  1.2136E+00  1.1250E+00  2.3387E+00
  7.8700E-01  1.2141E+00  1.1249E+00  2.3389E+00
  7.8800E-01  1.2145E+00  1.1247E+00  2.3392E+00
  7.8900E-01  1.2149E+00  1.1245E+00  2.3395E+00
  7.9000E-01  1.2154E+00  1.1244E+00  2.3397E+00
  7.9100E-01  1.2158E+00  1.1242E+00  2.3400E+00
  7.9200E-01  1.2163E+00  1.1240E+00  2.3403E+00
  7.9300E-01  1.2167E+00  1.1238E+00  2.3406E+00
  7.9400E-01  1.2172E+00  1.1237E+00  2.3408E+00
  7.9500E-01  1.2176E+00  1.1235E+00  2.3411E+00
  7.9600E-01  1.2181E+00  1.1233E+00  2.3414E+00
  7.9700E-01  1.2186E+00  1.1231E+00  2.3417E+00
  7.9800E-01  1.2190E+00  1.1229E+00  2.3420E+00
  7.9900E-01  1.2194E+00  1.1228E+00  2.3422E+00
