# GGADT v1.2.1
# =-=-=
# Total cross sections as a function of energy
# -----------------------------------
# Parameter values
# -----------------------------------
# a_eff:                               3.29355E-01 micron
# ephot_min:                           6.00000E-01kiloelectron-vo
# ephot_max:                           8.00000E-01kiloelectron-vo
# nephots:                                     200
# Material file:                                   hematite
# geometry:                                        ellipsoid
# angle_mode:                                      file
# angle_file:                                      angles
# ngrain:                                      128
# norientations:                                 1
# grain-axis-z:                        3.68446E-01 micron
# grain-axis-y:                        3.68446E-01 micron
# grain-axis-z:                        2.63175E-01 micron
# grid-width:                          7.36891E-01 micron
# axes-convention:                                 ddscat
# parameter_file_name:                             large_params_set.ini
# -----------------------------------
 # [ephot (kiloelectron-volt)] [Q_sca] [Q_abs] [Q_ext]
  6.0000E-01  1.7008E+00  8.7906E-01  2.5798E+00
  6.0100E-01  1.7003E+00  8.7755E-01  2.5779E+00
  6.0200E-01  1.6999E+00  8.7603E-01  2.5759E+00
  6.0300E-01  1.6994E+00  8.7449E-01  2.5739E+00
  6.0400E-01  1.6989E+00  8.7294E-01  2.5718E+00
  6.0500E-01  1.6984E+00  8.7137E-01  2.5698E+00
  6.0600E-01  1.6979E+00  8.6979E-01  2.5677E+00
  6.0700E-01  1.6973E+00  8.6819E-01  2.5655E+00
  6.0800E-01  1.6967E+00  8.6659E-01  2.5633E+00
  6.0900E-01  1.6954E+00  8.6511E-01  2.5605E+00
  6.1000E-01  1.6941E+00  8.6363E-01  2.5577E+00
  6.1100E-01  1.6927E+00  8.6212E-01  2.5548E+00
  6.1200E-01  1.6913E+00  8.6060E-01  2.5519E+00
  6.1300E-01  1.6899E+00  8.5907E-01  2.5489E+00
  6.1400E-01  1.6884E+00  8.5753E-01  2.5459E+00
  6.1500E-01  1.6869E+00  8.5597E-01  2.5429E+00
  6.1600E-01  1.6854E+00  8.5439E-01  2.5398E+00
  6.1700E-01  1.6839E+00  8.5280E-01  2.5367E+00
  6.1800E-01  1.6822E+00  8.5123E-01  2.5334E+00
  6.1900E-01  1.6799E+00  8.4976E-01  2.5296E+00
  6.2000E-01  1.6776E+00  8.4827E-01  2.5258E+00
  6.2100E-01  1.6752E+00  8.4677E-01  2.5220E+00
  6.2200E-01  1.6728E+00  8.4526E-01  2.5181E+00
  6.2300E-01  1.6704E+00  8.4373E-01  2.5141E+00
  6.2400E-01  1.6679E+00  8.4219E-01  2.5101E+00
  6.2500E-01  1.6654E+00  8.4064E-01  2.5060E+00
  6.2600E-01  1.6628E+00  8.3907E-01  2.5019E+00
  6.2700E-01  1.6603E+00  8.3749E-01  2.4977E+00
  6.2800E-01  1.6575E+00  8.3591E-01  2.4934E+00
  6.2900E-01  1.6541E+00  8.3441E-01  2.4885E+00
  6.3000E-01  1.6507E+00  8.3289E-01  2.4836E+00
  6.3100E-01  1.6472E+00  8.3136E-01  2.4786E+00
  6.3200E-01  1.6437E+00  8.2982E-01  2.4735E+00
  6.3300E-01  1.6401E+00  8.2826E-01  2.4684E+00
  6.3400E-01  1.6365E+00  8.2669E-01  2.4632E+00
  6.3500E-01  1.6328E+00  8.2510E-01  2.4579E+00
  6.3600E-01  1.6291E+00  8.2350E-01  2.4526E+00
  6.3700E-01  1.6254E+00  8.2189E-01  2.4473E+00
  6.3800E-01  1.6215E+00  8.2027E-01  2.4417E+00
  6.3900E-01  1.6167E+00  8.1872E-01  2.4354E+00
  6.4000E-01  1.6118E+00  8.1716E-01  2.4290E+00
  6.4100E-01  1.6069E+00  8.1558E-01  2.4224E+00
  6.4200E-01  1.6019E+00  8.1399E-01  2.4159E+00
  6.4300E-01  1.5968E+00  8.1238E-01  2.4092E+00
  6.4400E-01  1.5917E+00  8.1076E-01  2.4025E+00
  6.4500E-01  1.5865E+00  8.0913E-01  2.3957E+00
  6.4600E-01  1.5813E+00  8.0748E-01  2.3888E+00
  6.4700E-01  1.5760E+00  8.0582E-01  2.3818E+00
  6.4800E-01  1.5706E+00  8.0414E-01  2.3748E+00
  6.4900E-01  1.5641E+00  8.0254E-01  2.3666E+00
  6.5000E-01  1.5571E+00  8.0096E-01  2.3581E+00
  6.5100E-01  1.5501E+00  7.9936E-01  2.3495E+00
  6.5200E-01  1.5430E+00  7.9775E-01  2.3407E+00
  6.5300E-01  1.5358E+00  7.9612E-01  2.3319E+00
  6.5400E-01  1.5285E+00  7.9448E-01  2.3230E+00
  6.5500E-01  1.5212E+00  7.9283E-01  2.3140E+00
  6.5600E-01  1.5137E+00  7.9116E-01  2.3049E+00
  6.5700E-01  1.5062E+00  7.8948E-01  2.2957E+00
  6.5800E-01  1.4986E+00  7.8778E-01  2.2864E+00
  6.5900E-01  1.4903E+00  7.8612E-01  2.2764E+00
  6.6000E-01  1.4801E+00  7.8456E-01  2.2646E+00
  6.6100E-01  1.4698E+00  7.8299E-01  2.2528E+00
  6.6200E-01  1.4594E+00  7.8140E-01  2.2408E+00
  6.6300E-01  1.4489E+00  7.7981E-01  2.2287E+00
  6.6400E-01  1.4383E+00  7.7819E-01  2.2165E+00
  6.6500E-01  1.4276E+00  7.7657E-01  2.2042E+00
  6.6600E-01  1.4168E+00  7.7493E-01  2.1917E+00
  6.6700E-01  1.4059E+00  7.7328E-01  2.1792E+00
  6.6800E-01  1.3949E+00  7.7161E-01  2.1666E+00
  6.6900E-01  1.3838E+00  7.6993E-01  2.1538E+00
  6.7000E-01  1.3697E+00  7.6841E-01  2.1382E+00
  6.7100E-01  1.3539E+00  7.6697E-01  2.1208E+00
  6.7200E-01  1.3378E+00  7.6552E-01  2.1034E+00
  6.7300E-01  1.3217E+00  7.6406E-01  2.0858E+00
  6.7400E-01  1.3054E+00  7.6259E-01  2.0680E+00
  6.7500E-01  1.2891E+00  7.6111E-01  2.0502E+00
  6.7600E-01  1.2726E+00  7.5961E-01  2.0322E+00
  6.7700E-01  1.2560E+00  7.5811E-01  2.0141E+00
  6.7800E-01  1.2393E+00  7.5659E-01  1.9959E+00
  6.7900E-01  1.2225E+00  7.5506E-01  1.9776E+00
  6.8000E-01  1.2056E+00  7.5351E-01  1.9592E+00
  6.8100E-01  1.1817E+00  7.5214E-01  1.9338E+00
  6.8200E-01  1.1560E+00  7.5080E-01  1.9068E+00
  6.8300E-01  1.1302E+00  7.4944E-01  1.8796E+00
  6.8400E-01  1.1044E+00  7.4808E-01  1.8524E+00
  6.8500E-01  1.0785E+00  7.4671E-01  1.8252E+00
  6.8600E-01  1.0525E+00  7.4532E-01  1.7979E+00
  6.8700E-01  1.0266E+00  7.4393E-01  1.7705E+00
  6.8800E-01  1.0007E+00  7.4252E-01  1.7432E+00
  6.8900E-01  9.7479E-01  7.4111E-01  1.7159E+00
  6.9000E-01  9.4892E-01  7.3968E-01  1.6886E+00
  6.9100E-01  9.0452E-01  7.2652E-01  1.6310E+00
  6.9200E-01  8.5374E-01  7.3293E-01  1.5867E+00
  6.9300E-01  8.0057E-01  7.2430E-01  1.5249E+00
  6.9400E-01  7.6291E-01  7.2599E-01  1.4889E+00
  6.9500E-01  7.0415E-01  7.3305E-01  1.4372E+00
  6.9600E-01  6.4547E-01  7.2558E-01  1.3711E+00
  6.9700E-01  5.8174E-01  7.2731E-01  1.3091E+00
  6.9800E-01  5.1478E-01  7.2460E-01  1.2394E+00
  6.9900E-01  4.3994E-01  7.2657E-01  1.1665E+00
  7.0000E-01  3.5816E-01  7.2160E-01  1.0798E+00
  7.0100E-01  2.8577E-01  7.3543E-01  1.0212E+00
  7.0200E-01  2.1153E-01  7.3044E-01  9.4198E-01
  7.0300E-01  1.9436E-01  7.5004E-01  9.4439E-01
  7.0400E-01  3.0578E-01  7.8019E-01  1.0860E+00
  7.0500E-01  8.0341E-01  8.6576E-01  1.6692E+00
  7.0600E-01  1.3488E+00  1.1638E+00  2.5125E+00
  7.0700E-01  1.0689E+00  1.2107E+00  2.2797E+00
  7.0800E-01  1.2009E+00  1.2430E+00  2.4439E+00
  7.0900E-01  1.2412E+00  1.2322E+00  2.4733E+00
  7.1000E-01  1.3268E+00  1.2025E+00  2.5293E+00
  7.1100E-01  1.3588E+00  1.1782E+00  2.5370E+00
  7.1200E-01  1.4178E+00  1.1508E+00  2.5686E+00
  7.1300E-01  1.4651E+00  1.1081E+00  2.5732E+00
  7.1400E-01  1.4196E+00  1.0820E+00  2.5016E+00
  7.1500E-01  1.3700E+00  1.0669E+00  2.4370E+00
  7.1600E-01  1.3209E+00  1.0402E+00  2.3612E+00
  7.1700E-01  1.1850E+00  1.0165E+00  2.2015E+00
  7.1800E-01  9.5030E-01  1.0370E+00  1.9873E+00
  7.1900E-01  8.2327E-01  1.1289E+00  1.9521E+00
  7.2000E-01  1.0802E+00  1.1684E+00  2.2487E+00
  7.2100E-01  1.1108E+00  1.1883E+00  2.2992E+00
  7.2200E-01  1.2667E+00  1.1752E+00  2.4419E+00
  7.2300E-01  1.4079E+00  1.1364E+00  2.5442E+00
  7.2400E-01  1.4740E+00  1.0910E+00  2.5650E+00
  7.2500E-01  1.4742E+00  1.0595E+00  2.5338E+00
  7.2600E-01  1.4334E+00  1.0421E+00  2.4755E+00
  7.2700E-01  1.3941E+00  1.0360E+00  2.4301E+00
  7.2800E-01  1.3620E+00  1.0323E+00  2.3943E+00
  7.2900E-01  1.3352E+00  1.0253E+00  2.3605E+00
  7.3000E-01  1.3034E+00  1.0176E+00  2.3210E+00
  7.3100E-01  1.2525E+00  1.0207E+00  2.2733E+00
  7.3200E-01  1.2041E+00  1.0239E+00  2.2280E+00
  7.3300E-01  1.1764E+00  1.0362E+00  2.2126E+00
  7.3400E-01  1.1489E+00  1.0443E+00  2.1932E+00
  7.3500E-01  1.1351E+00  1.0518E+00  2.1869E+00
  7.3600E-01  1.1242E+00  1.0593E+00  2.1834E+00
  7.3700E-01  1.1151E+00  1.0651E+00  2.1802E+00
  7.3800E-01  1.1096E+00  1.0724E+00  2.1819E+00
  7.3900E-01  1.1074E+00  1.0775E+00  2.1849E+00
  7.4000E-01  1.1066E+00  1.0835E+00  2.1900E+00
  7.4100E-01  1.1118E+00  1.0879E+00  2.1997E+00
  7.4200E-01  1.1163E+00  1.0914E+00  2.2077E+00
  7.4300E-01  1.1232E+00  1.0961E+00  2.2193E+00
  7.4400E-01  1.1280E+00  1.0990E+00  2.2270E+00
  7.4500E-01  1.1396E+00  1.1006E+00  2.2403E+00
  7.4600E-01  1.1494E+00  1.1019E+00  2.2513E+00
  7.4700E-01  1.1563E+00  1.1029E+00  2.2591E+00
  7.4800E-01  1.1685E+00  1.1026E+00  2.2711E+00
  7.4900E-01  1.1744E+00  1.1033E+00  2.2777E+00
  7.5000E-01  1.1828E+00  1.1022E+00  2.2850E+00
  7.5100E-01  1.1878E+00  1.1014E+00  2.2892E+00
  7.5200E-01  1.1928E+00  1.1006E+00  2.2934E+00
  7.5300E-01  1.1979E+00  1.0999E+00  2.2977E+00
  7.5400E-01  1.2030E+00  1.0991E+00  2.3021E+00
  7.5500E-01  1.2082E+00  1.0983E+00  2.3064E+00
  7.5600E-01  1.2134E+00  1.0975E+00  2.3109E+00
  7.5700E-01  1.2186E+00  1.0967E+00  2.3153E+00
  7.5800E-01  1.2240E+00  1.0959E+00  2.3198E+00
  7.5900E-01  1.2293E+00  1.0950E+00  2.3244E+00
  7.6000E-01  1.2348E+00  1.0942E+00  2.3290E+00
  7.6100E-01  1.2402E+00  1.0933E+00  2.3336E+00
  7.6200E-01  1.2435E+00  1.0926E+00  2.3360E+00
  7.6300E-01  1.2466E+00  1.0918E+00  2.3384E+00
  7.6400E-01  1.2498E+00  1.0910E+00  2.3408E+00
  7.6500E-01  1.2530E+00  1.0902E+00  2.3432E+00
  7.6600E-01  1.2562E+00  1.0894E+00  2.3456E+00
  7.6700E-01  1.2595E+00  1.0886E+00  2.3481E+00
  7.6800E-01  1.2628E+00  1.0878E+00  2.3505E+00
  7.6900E-01  1.2661E+00  1.0869E+00  2.3530E+00
  7.7000E-01  1.2695E+00  1.0861E+00  2.3556E+00
  7.7100E-01  1.2729E+00  1.0852E+00  2.3581E+00
  7.7200E-01  1.2763E+00  1.0844E+00  2.3607E+00
  7.7300E-01  1.2797E+00  1.0835E+00  2.3632E+00
  7.7400E-01  1.2825E+00  1.0827E+00  2.3651E+00
  7.7500E-01  1.2848E+00  1.0819E+00  2.3667E+00
  7.7600E-01  1.2872E+00  1.0811E+00  2.3682E+00
  7.7700E-01  1.2895E+00  1.0803E+00  2.3698E+00
  7.7800E-01  1.2919E+00  1.0794E+00  2.3714E+00
  7.7900E-01  1.2944E+00  1.0786E+00  2.3730E+00
  7.8000E-01  1.2968E+00  1.0778E+00  2.3746E+00
  7.8100E-01  1.2993E+00  1.0769E+00  2.3762E+00
  7.8200E-01  1.3017E+00  1.0761E+00  2.3778E+00
  7.8300E-01  1.3042E+00  1.0752E+00  2.3794E+00
  7.8400E-01  1.3068E+00  1.0743E+00  2.3811E+00
  7.8500E-01  1.3093E+00  1.0734E+00  2.3828E+00
  7.8600E-01  1.3117E+00  1.0726E+00  2.3843E+00
  7.8700E-01  1.3132E+00  1.0718E+00  2.3850E+00
  7.8800E-01  1.3148E+00  1.0710E+00  2.3857E+00
  7.8900E-01  1.3163E+00  1.0702E+00  2.3864E+00
  7.9000E-01  1.3178E+00  1.0693E+00  2.3872E+00
  7.9100E-01  1.3194E+00  1.0685E+00  2.3879E+00
  7.9200E-01  1.3210E+00  1.0677E+00  2.3886E+00
  7.9300E-01  1.3225E+00  1.0668E+00  2.3894E+00
  7.9400E-01  1.3241E+00  1.0660E+00  2.3901E+00
  7.9500E-01  1.3257E+00  1.0651E+00  2.3909E+00
  7.9600E-01  1.3273E+00  1.0643E+00  2.3916E+00
  7.9700E-01  1.3290E+00  1.0634E+00  2.3924E+00
  7.9800E-01  1.3306E+00  1.0625E+00  2.3931E+00
  7.9900E-01  1.3319E+00  1.0619E+00  2.3937E+00
