# GGADT v1.2.1
# =-=-=
# Total cross sections as a function of energy
# -----------------------------------
# Parameter values
# -----------------------------------
# a_eff:                               7.76452E-01 micron
# ephot_min:                           6.00000E-01kiloelectron-vo
# ephot_max:                           8.00000E-01kiloelectron-vo
# nephots:                                     200
# Material file:                                   hematite
# geometry:                                        ellipsoid
# angle_mode:                                      file
# angle_file:                                      angles
# ngrain:                                      128
# norientations:                                 1
# grain-axis-z:                        8.68608E-01 micron
# grain-axis-y:                        8.68608E-01 micron
# grain-axis-z:                        6.20434E-01 micron
# grid-width:                          1.73722E+00 micron
# axes-convention:                                 ddscat
# parameter_file_name:                             large_params_set.ini
# -----------------------------------
 # [ephot (kiloelectron-volt)] [Q_sca] [Q_abs] [Q_ext]
  6.0000E-01  1.4565E+00  1.1440E+00  2.6005E+00
  6.0100E-01  1.4585E+00  1.1433E+00  2.6018E+00
  6.0200E-01  1.4605E+00  1.1426E+00  2.6031E+00
  6.0300E-01  1.4626E+00  1.1418E+00  2.6044E+00
  6.0400E-01  1.4646E+00  1.1411E+00  2.6057E+00
  6.0500E-01  1.4668E+00  1.1403E+00  2.6071E+00
  6.0600E-01  1.4689E+00  1.1396E+00  2.6085E+00
  6.0700E-01  1.4711E+00  1.1388E+00  2.6099E+00
  6.0800E-01  1.4734E+00  1.1380E+00  2.6114E+00
  6.0900E-01  1.4757E+00  1.1373E+00  2.6130E+00
  6.1000E-01  1.4781E+00  1.1366E+00  2.6147E+00
  6.1100E-01  1.4806E+00  1.1358E+00  2.6164E+00
  6.1200E-01  1.4830E+00  1.1351E+00  2.6181E+00
  6.1300E-01  1.4856E+00  1.1343E+00  2.6199E+00
  6.1400E-01  1.4881E+00  1.1335E+00  2.6217E+00
  6.1500E-01  1.4908E+00  1.1327E+00  2.6235E+00
  6.1600E-01  1.4934E+00  1.1319E+00  2.6254E+00
  6.1700E-01  1.4961E+00  1.1311E+00  2.6273E+00
  6.1800E-01  1.4989E+00  1.1303E+00  2.6292E+00
  6.1900E-01  1.5018E+00  1.1296E+00  2.6313E+00
  6.2000E-01  1.5047E+00  1.1288E+00  2.6335E+00
  6.2100E-01  1.5076E+00  1.1281E+00  2.6357E+00
  6.2200E-01  1.5106E+00  1.1273E+00  2.6379E+00
  6.2300E-01  1.5137E+00  1.1265E+00  2.6402E+00
  6.2400E-01  1.5168E+00  1.1257E+00  2.6425E+00
  6.2500E-01  1.5200E+00  1.1249E+00  2.6448E+00
  6.2600E-01  1.5232E+00  1.1240E+00  2.6472E+00
  6.2700E-01  1.5264E+00  1.1232E+00  2.6496E+00
  6.2800E-01  1.5298E+00  1.1224E+00  2.6521E+00
  6.2900E-01  1.5333E+00  1.1216E+00  2.6548E+00
  6.3000E-01  1.5368E+00  1.1208E+00  2.6575E+00
  6.3100E-01  1.5404E+00  1.1199E+00  2.6603E+00
  6.3200E-01  1.5440E+00  1.1191E+00  2.6631E+00
  6.3300E-01  1.5477E+00  1.1183E+00  2.6660E+00
  6.3400E-01  1.5515E+00  1.1174E+00  2.6689E+00
  6.3500E-01  1.5553E+00  1.1165E+00  2.6718E+00
  6.3600E-01  1.5591E+00  1.1157E+00  2.6748E+00
  6.3700E-01  1.5631E+00  1.1148E+00  2.6778E+00
  6.3800E-01  1.5671E+00  1.1139E+00  2.6809E+00
  6.3900E-01  1.5713E+00  1.1130E+00  2.6843E+00
  6.4000E-01  1.5756E+00  1.1121E+00  2.6877E+00
  6.4100E-01  1.5800E+00  1.1113E+00  2.6912E+00
  6.4200E-01  1.5844E+00  1.1104E+00  2.6947E+00
  6.4300E-01  1.5888E+00  1.1095E+00  2.6983E+00
  6.4400E-01  1.5933E+00  1.1085E+00  2.7019E+00
  6.4500E-01  1.5979E+00  1.1076E+00  2.7055E+00
  6.4600E-01  1.6025E+00  1.1067E+00  2.7092E+00
  6.4700E-01  1.6072E+00  1.1057E+00  2.7129E+00
  6.4800E-01  1.6119E+00  1.1048E+00  2.7166E+00
  6.4900E-01  1.6169E+00  1.1038E+00  2.7207E+00
  6.5000E-01  1.6220E+00  1.1029E+00  2.7249E+00
  6.5100E-01  1.6272E+00  1.1020E+00  2.7292E+00
  6.5200E-01  1.6324E+00  1.1010E+00  2.7334E+00
  6.5300E-01  1.6376E+00  1.1001E+00  2.7377E+00
  6.5400E-01  1.6429E+00  1.0991E+00  2.7420E+00
  6.5500E-01  1.6482E+00  1.0981E+00  2.7463E+00
  6.5600E-01  1.6535E+00  1.0971E+00  2.7506E+00
  6.5700E-01  1.6588E+00  1.0961E+00  2.7550E+00
  6.5800E-01  1.6642E+00  1.0951E+00  2.7593E+00
  6.5900E-01  1.6697E+00  1.0941E+00  2.7638E+00
  6.6000E-01  1.6755E+00  1.0932E+00  2.7687E+00
  6.6100E-01  1.6813E+00  1.0922E+00  2.7735E+00
  6.6200E-01  1.6871E+00  1.0913E+00  2.7783E+00
  6.6300E-01  1.6928E+00  1.0903E+00  2.7830E+00
  6.6400E-01  1.6984E+00  1.0893E+00  2.7877E+00
  6.6500E-01  1.7040E+00  1.0883E+00  2.7923E+00
  6.6600E-01  1.7096E+00  1.0873E+00  2.7968E+00
  6.6700E-01  1.7150E+00  1.0862E+00  2.8013E+00
  6.6800E-01  1.7204E+00  1.0852E+00  2.8056E+00
  6.6900E-01  1.7257E+00  1.0841E+00  2.8098E+00
  6.7000E-01  1.7311E+00  1.0832E+00  2.8143E+00
  6.7100E-01  1.7364E+00  1.0823E+00  2.8187E+00
  6.7200E-01  1.7414E+00  1.0814E+00  2.8228E+00
  6.7300E-01  1.7461E+00  1.0804E+00  2.8265E+00
  6.7400E-01  1.7505E+00  1.0795E+00  2.8300E+00
  6.7500E-01  1.7545E+00  1.0785E+00  2.8330E+00
  6.7600E-01  1.7582E+00  1.0776E+00  2.8357E+00
  6.7700E-01  1.7615E+00  1.0766E+00  2.8380E+00
  6.7800E-01  1.7643E+00  1.0756E+00  2.8399E+00
  6.7900E-01  1.7668E+00  1.0746E+00  2.8414E+00
  6.8000E-01  1.7688E+00  1.0736E+00  2.8424E+00
  6.8100E-01  1.7693E+00  1.0727E+00  2.8420E+00
  6.8200E-01  1.7685E+00  1.0718E+00  2.8403E+00
  6.8300E-01  1.7665E+00  1.0709E+00  2.8375E+00
  6.8400E-01  1.7634E+00  1.0700E+00  2.8334E+00
  6.8500E-01  1.7589E+00  1.0691E+00  2.8281E+00
  6.8600E-01  1.7532E+00  1.0682E+00  2.8214E+00
  6.8700E-01  1.7461E+00  1.0673E+00  2.8134E+00
  6.8800E-01  1.7377E+00  1.0663E+00  2.8040E+00
  6.8900E-01  1.7278E+00  1.0654E+00  2.7932E+00
  6.9000E-01  1.7166E+00  1.0644E+00  2.7810E+00
  6.9100E-01  1.7113E+00  1.0554E+00  2.7667E+00
  6.9200E-01  1.6644E+00  1.0598E+00  2.7242E+00
  6.9300E-01  1.6330E+00  1.0538E+00  2.6868E+00
  6.9400E-01  1.5945E+00  1.0550E+00  2.6495E+00
  6.9500E-01  1.5216E+00  1.0599E+00  2.5815E+00
  6.9600E-01  1.4602E+00  1.0547E+00  2.5149E+00
  6.9700E-01  1.3696E+00  1.0559E+00  2.4256E+00
  6.9800E-01  1.2679E+00  1.0540E+00  2.3219E+00
  6.9900E-01  1.1334E+00  1.0554E+00  2.1888E+00
  7.0000E-01  9.7378E-01  1.0519E+00  2.0257E+00
  7.0100E-01  8.0199E-01  1.0615E+00  1.8635E+00
  7.0200E-01  6.2235E-01  1.0581E+00  1.6804E+00
  7.0300E-01  5.6860E-01  1.0713E+00  1.6399E+00
  7.0400E-01  8.1769E-01  1.0905E+00  1.9082E+00
  7.0500E-01  1.4352E+00  1.1376E+00  2.5728E+00
  7.0600E-01  1.2769E+00  1.2344E+00  2.5112E+00
  7.0700E-01  1.2200E+00  1.2431E+00  2.4631E+00
  7.0800E-01  1.2416E+00  1.2484E+00  2.4901E+00
  7.0900E-01  1.2489E+00  1.2467E+00  2.4956E+00
  7.1000E-01  1.2632E+00  1.2416E+00  2.5049E+00
  7.1100E-01  1.2723E+00  1.2372E+00  2.5094E+00
  7.1200E-01  1.2849E+00  1.2318E+00  2.5166E+00
  7.1300E-01  1.3041E+00  1.2224E+00  2.5266E+00
  7.1400E-01  1.3214E+00  1.2161E+00  2.5374E+00
  7.1500E-01  1.3349E+00  1.2122E+00  2.5471E+00
  7.1600E-01  1.3603E+00  1.2047E+00  2.5650E+00
  7.1700E-01  1.3837E+00  1.1975E+00  2.5812E+00
  7.1800E-01  1.3130E+00  1.2038E+00  2.5167E+00
  7.1900E-01  1.1735E+00  1.2271E+00  2.4006E+00
  7.2000E-01  1.2421E+00  1.2353E+00  2.4774E+00
  7.2100E-01  1.2384E+00  1.2391E+00  2.4774E+00
  7.2200E-01  1.2663E+00  1.2366E+00  2.5029E+00
  7.2300E-01  1.2907E+00  1.2288E+00  2.5194E+00
  7.2400E-01  1.3130E+00  1.2183E+00  2.5314E+00
  7.2500E-01  1.3331E+00  1.2102E+00  2.5433E+00
  7.2600E-01  1.3503E+00  1.2053E+00  2.5556E+00
  7.2700E-01  1.3592E+00  1.2035E+00  2.5627E+00
  7.2800E-01  1.3653E+00  1.2024E+00  2.5676E+00
  7.2900E-01  1.3738E+00  1.2003E+00  2.5741E+00
  7.3000E-01  1.3832E+00  1.1979E+00  2.5811E+00
  7.3100E-01  1.3812E+00  1.1989E+00  2.5801E+00
  7.3200E-01  1.3769E+00  1.1998E+00  2.5767E+00
  7.3300E-01  1.3625E+00  1.2035E+00  2.5660E+00
  7.3400E-01  1.3518E+00  1.2059E+00  2.5577E+00
  7.3500E-01  1.3427E+00  1.2080E+00  2.5508E+00
  7.3600E-01  1.3341E+00  1.2101E+00  2.5442E+00
  7.3700E-01  1.3273E+00  1.2117E+00  2.5389E+00
  7.3800E-01  1.3197E+00  1.2136E+00  2.5333E+00
  7.3900E-01  1.3147E+00  1.2149E+00  2.5296E+00
  7.4000E-01  1.3092E+00  1.2164E+00  2.5257E+00
  7.4100E-01  1.3062E+00  1.2176E+00  2.5238E+00
  7.4200E-01  1.3039E+00  1.2184E+00  2.5224E+00
  7.4300E-01  1.3011E+00  1.2196E+00  2.5206E+00
  7.4400E-01  1.2994E+00  1.2203E+00  2.5197E+00
  7.4500E-01  1.2997E+00  1.2207E+00  2.5204E+00
  7.4600E-01  1.2999E+00  1.2210E+00  2.5209E+00
  7.4700E-01  1.3000E+00  1.2212E+00  2.5212E+00
  7.4800E-01  1.3016E+00  1.2212E+00  2.5228E+00
  7.4900E-01  1.3018E+00  1.2213E+00  2.5231E+00
  7.5000E-01  1.3035E+00  1.2210E+00  2.5246E+00
  7.5100E-01  1.3046E+00  1.2209E+00  2.5254E+00
  7.5200E-01  1.3056E+00  1.2207E+00  2.5263E+00
  7.5300E-01  1.3067E+00  1.2205E+00  2.5272E+00
  7.5400E-01  1.3077E+00  1.2203E+00  2.5280E+00
  7.5500E-01  1.3087E+00  1.2201E+00  2.5289E+00
  7.5600E-01  1.3097E+00  1.2199E+00  2.5297E+00
  7.5700E-01  1.3107E+00  1.2197E+00  2.5305E+00
  7.5800E-01  1.3117E+00  1.2195E+00  2.5312E+00
  7.5900E-01  1.3127E+00  1.2193E+00  2.5320E+00
  7.6000E-01  1.3136E+00  1.2191E+00  2.5327E+00
  7.6100E-01  1.3146E+00  1.2189E+00  2.5335E+00
  7.6200E-01  1.3153E+00  1.2187E+00  2.5340E+00
  7.6300E-01  1.3161E+00  1.2185E+00  2.5346E+00
  7.6400E-01  1.3168E+00  1.2183E+00  2.5352E+00
  7.6500E-01  1.3176E+00  1.2181E+00  2.5357E+00
  7.6600E-01  1.3183E+00  1.2179E+00  2.5363E+00
  7.6700E-01  1.3191E+00  1.2177E+00  2.5368E+00
  7.6800E-01  1.3198E+00  1.2175E+00  2.5373E+00
  7.6900E-01  1.3206E+00  1.2173E+00  2.5379E+00
  7.7000E-01  1.3213E+00  1.2171E+00  2.5384E+00
  7.7100E-01  1.3221E+00  1.2169E+00  2.5389E+00
  7.7200E-01  1.3228E+00  1.2167E+00  2.5395E+00
  7.7300E-01  1.3235E+00  1.2165E+00  2.5400E+00
  7.7400E-01  1.3242E+00  1.2163E+00  2.5405E+00
  7.7500E-01  1.3249E+00  1.2160E+00  2.5409E+00
  7.7600E-01  1.3256E+00  1.2158E+00  2.5414E+00
  7.7700E-01  1.3262E+00  1.2156E+00  2.5419E+00
  7.7800E-01  1.3269E+00  1.2154E+00  2.5423E+00
  7.7900E-01  1.3276E+00  1.2152E+00  2.5428E+00
  7.8000E-01  1.3282E+00  1.2150E+00  2.5432E+00
  7.8100E-01  1.3289E+00  1.2148E+00  2.5437E+00
  7.8200E-01  1.3296E+00  1.2146E+00  2.5442E+00
  7.8300E-01  1.3303E+00  1.2143E+00  2.5446E+00
  7.8400E-01  1.3310E+00  1.2141E+00  2.5451E+00
  7.8500E-01  1.3317E+00  1.2139E+00  2.5455E+00
  7.8600E-01  1.3323E+00  1.2136E+00  2.5460E+00
  7.8700E-01  1.3330E+00  1.2134E+00  2.5464E+00
  7.8800E-01  1.3336E+00  1.2132E+00  2.5468E+00
  7.8900E-01  1.3342E+00  1.2130E+00  2.5472E+00
  7.9000E-01  1.3349E+00  1.2128E+00  2.5477E+00
  7.9100E-01  1.3355E+00  1.2126E+00  2.5481E+00
  7.9200E-01  1.3362E+00  1.2124E+00  2.5485E+00
  7.9300E-01  1.3368E+00  1.2121E+00  2.5490E+00
  7.9400E-01  1.3375E+00  1.2119E+00  2.5494E+00
  7.9500E-01  1.3382E+00  1.2117E+00  2.5498E+00
  7.9600E-01  1.3388E+00  1.2114E+00  2.5503E+00
  7.9700E-01  1.3395E+00  1.2112E+00  2.5507E+00
  7.9800E-01  1.3402E+00  1.2110E+00  2.5512E+00
  7.9900E-01  1.3407E+00  1.2108E+00  2.5515E+00
