# GGADT v1.2.1
# =-=-=
# Total cross sections as a function of energy
# -----------------------------------
# Parameter values
# -----------------------------------
# a_eff:                               1.05806E-01 micron
# ephot_min:                           6.00000E-01kiloelectron-vo
# ephot_max:                           8.00000E-01kiloelectron-vo
# nephots:                                     200
# Material file:                                   hematite
# geometry:                                        ellipsoid
# angle_mode:                                      random
# ngrain:                                      128
# norientations:                                 1
# grain-axis-z:                        1.05806E-01 micron
# grain-axis-y:                        1.05806E-01 micron
# grain-axis-z:                        1.05806E-01 micron
# grid-width:                          2.11613E-01 micron
# axes-convention:                                 ddscat
# parameter_file_name:                             small_params.ini
# -----------------------------------
 # [ephot (kiloelectron-volt)] [Q_sca] [Q_abs] [Q_ext]
  6.0000E-01  4.5437E-01  4.0352E-01  8.5788E-01
  6.0100E-01  4.5325E-01  4.0241E-01  8.5566E-01
  6.0200E-01  4.5213E-01  4.0130E-01  8.5343E-01
  6.0300E-01  4.5100E-01  4.0018E-01  8.5118E-01
  6.0400E-01  4.4986E-01  3.9905E-01  8.4891E-01
  6.0500E-01  4.4871E-01  3.9792E-01  8.4663E-01
  6.0600E-01  4.4756E-01  3.9678E-01  8.4434E-01
  6.0700E-01  4.4640E-01  3.9563E-01  8.4202E-01
  6.0800E-01  4.4521E-01  3.9448E-01  8.3969E-01
  6.0900E-01  4.4382E-01  3.9342E-01  8.3724E-01
  6.1000E-01  4.4241E-01  3.9236E-01  8.3477E-01
  6.1100E-01  4.4100E-01  3.9129E-01  8.3229E-01
  6.1200E-01  4.3958E-01  3.9021E-01  8.2979E-01
  6.1300E-01  4.3815E-01  3.8912E-01  8.2728E-01
  6.1400E-01  4.3672E-01  3.8803E-01  8.2475E-01
  6.1500E-01  4.3527E-01  3.8693E-01  8.2220E-01
  6.1600E-01  4.3382E-01  3.8582E-01  8.1964E-01
  6.1700E-01  4.3236E-01  3.8471E-01  8.1707E-01
  6.1800E-01  4.3084E-01  3.8361E-01  8.1445E-01
  6.1900E-01  4.2917E-01  3.8258E-01  8.1175E-01
  6.2000E-01  4.2749E-01  3.8155E-01  8.0903E-01
  6.2100E-01  4.2579E-01  3.8051E-01  8.0630E-01
  6.2200E-01  4.2409E-01  3.7946E-01  8.0356E-01
  6.2300E-01  4.2239E-01  3.7841E-01  8.0080E-01
  6.2400E-01  4.2067E-01  3.7735E-01  7.9802E-01
  6.2500E-01  4.1894E-01  3.7628E-01  7.9523E-01
  6.2600E-01  4.1721E-01  3.7521E-01  7.9242E-01
  6.2700E-01  4.1547E-01  3.7413E-01  7.8960E-01
  6.2800E-01  4.1367E-01  3.7306E-01  7.8673E-01
  6.2900E-01  4.1170E-01  3.7204E-01  7.8373E-01
  6.3000E-01  4.0971E-01  3.7101E-01  7.8072E-01
  6.3100E-01  4.0773E-01  3.6997E-01  7.7770E-01
  6.3200E-01  4.0573E-01  3.6893E-01  7.7466E-01
  6.3300E-01  4.0372E-01  3.6789E-01  7.7161E-01
  6.3400E-01  4.0171E-01  3.6683E-01  7.6854E-01
  6.3500E-01  3.9969E-01  3.6577E-01  7.6546E-01
  6.3600E-01  3.9766E-01  3.6470E-01  7.6236E-01
  6.3700E-01  3.9562E-01  3.6363E-01  7.5925E-01
  6.3800E-01  3.9355E-01  3.6255E-01  7.5610E-01
  6.3900E-01  3.9120E-01  3.6152E-01  7.5273E-01
  6.4000E-01  3.8885E-01  3.6049E-01  7.4934E-01
  6.4100E-01  3.8648E-01  3.5945E-01  7.4594E-01
  6.4200E-01  3.8412E-01  3.5841E-01  7.4252E-01
  6.4300E-01  3.8174E-01  3.5735E-01  7.3909E-01
  6.4400E-01  3.7935E-01  3.5629E-01  7.3565E-01
  6.4500E-01  3.7696E-01  3.5523E-01  7.3219E-01
  6.4600E-01  3.7457E-01  3.5416E-01  7.2872E-01
  6.4700E-01  3.7216E-01  3.5308E-01  7.2524E-01
  6.4800E-01  3.6975E-01  3.5199E-01  7.2174E-01
  6.4900E-01  3.6699E-01  3.5096E-01  7.1795E-01
  6.5000E-01  3.6414E-01  3.4994E-01  7.1407E-01
  6.5100E-01  3.6127E-01  3.4891E-01  7.1018E-01
  6.5200E-01  3.5840E-01  3.4788E-01  7.0628E-01
  6.5300E-01  3.5553E-01  3.4684E-01  7.0237E-01
  6.5400E-01  3.5265E-01  3.4579E-01  6.9844E-01
  6.5500E-01  3.4976E-01  3.4474E-01  6.9450E-01
  6.5600E-01  3.4688E-01  3.4368E-01  6.9056E-01
  6.5700E-01  3.4398E-01  3.4262E-01  6.8660E-01
  6.5800E-01  3.4109E-01  3.4154E-01  6.8263E-01
  6.5900E-01  3.3798E-01  3.4050E-01  6.7848E-01
  6.6000E-01  3.3439E-01  3.3952E-01  6.7391E-01
  6.6100E-01  3.3080E-01  3.3853E-01  6.6933E-01
  6.6200E-01  3.2720E-01  3.3754E-01  6.6474E-01
  6.6300E-01  3.2361E-01  3.3654E-01  6.6015E-01
  6.6400E-01  3.2002E-01  3.3554E-01  6.5555E-01
  6.6500E-01  3.1642E-01  3.3453E-01  6.5095E-01
  6.6600E-01  3.1283E-01  3.3351E-01  6.4634E-01
  6.6700E-01  3.0924E-01  3.3249E-01  6.4173E-01
  6.6800E-01  3.0565E-01  3.3146E-01  6.3712E-01
  6.6900E-01  3.0207E-01  3.3043E-01  6.3250E-01
  6.7000E-01  2.9771E-01  3.2949E-01  6.2720E-01
  6.7100E-01  2.9292E-01  3.2861E-01  6.2153E-01
  6.7200E-01  2.8815E-01  3.2772E-01  6.1587E-01
  6.7300E-01  2.8339E-01  3.2683E-01  6.1022E-01
  6.7400E-01  2.7865E-01  3.2594E-01  6.0458E-01
  6.7500E-01  2.7392E-01  3.2504E-01  5.9896E-01
  6.7600E-01  2.6922E-01  3.2413E-01  5.9335E-01
  6.7700E-01  2.6453E-01  3.2322E-01  5.8775E-01
  6.7800E-01  2.5986E-01  3.2230E-01  5.8216E-01
  6.7900E-01  2.5521E-01  3.2138E-01  5.7659E-01
  6.8000E-01  2.5059E-01  3.2045E-01  5.7104E-01
  6.8100E-01  2.4425E-01  3.1962E-01  5.6388E-01
  6.8200E-01  2.3757E-01  3.1882E-01  5.5639E-01
  6.8300E-01  2.3096E-01  3.1801E-01  5.4897E-01
  6.8400E-01  2.2441E-01  3.1720E-01  5.4161E-01
  6.8500E-01  2.1793E-01  3.1638E-01  5.3431E-01
  6.8600E-01  2.1153E-01  3.1556E-01  5.2709E-01
  6.8700E-01  2.0520E-01  3.1473E-01  5.1993E-01
  6.8800E-01  1.9895E-01  3.1390E-01  5.1285E-01
  6.8900E-01  1.9277E-01  3.1306E-01  5.0583E-01
  6.9000E-01  1.8668E-01  3.1222E-01  4.9889E-01
  6.9100E-01  1.7508E-01  3.0452E-01  4.7961E-01
  6.9200E-01  1.6467E-01  3.0826E-01  4.7292E-01
  6.9300E-01  1.5228E-01  3.0324E-01  4.5553E-01
  6.9400E-01  1.4447E-01  3.0422E-01  4.4869E-01
  6.9500E-01  1.3281E-01  3.0833E-01  4.4114E-01
  6.9600E-01  1.2014E-01  3.0398E-01  4.2412E-01
  6.9700E-01  1.0743E-01  3.0499E-01  4.1242E-01
  6.9800E-01  9.4044E-02  3.0342E-01  3.9746E-01
  6.9900E-01  7.9670E-02  3.0456E-01  3.8423E-01
  7.0000E-01  6.3987E-02  3.0168E-01  3.6567E-01
  7.0100E-01  5.1007E-02  3.0972E-01  3.6072E-01
  7.0200E-01  3.7300E-02  3.0680E-01  3.4410E-01
  7.0300E-01  3.4599E-02  3.1837E-01  3.5296E-01
  7.0400E-01  5.6263E-02  3.3678E-01  3.9304E-01
  7.0500E-01  1.6997E-01  3.9388E-01  5.6385E-01
  7.0600E-01  5.8930E-01  7.2116E-01  1.3105E+00
  7.0700E-01  4.6564E-01  8.3559E-01  1.3012E+00
  7.0800E-01  7.8179E-01  9.6363E-01  1.7454E+00
  7.0900E-01  8.0406E-01  9.1312E-01  1.7172E+00
  7.1000E-01  7.4570E-01  8.1131E-01  1.5570E+00
  7.1100E-01  6.5461E-01  7.5121E-01  1.4058E+00
  7.1200E-01  6.2365E-01  6.9687E-01  1.3205E+00
  7.1300E-01  5.6075E-01  6.2915E-01  1.1899E+00
  7.1400E-01  4.8715E-01  5.9426E-01  1.0814E+00
  7.1500E-01  4.4181E-01  5.7585E-01  1.0177E+00
  7.1600E-01  3.9492E-01  5.4554E-01  9.4047E-01
  7.1700E-01  3.2459E-01  5.2075E-01  8.4534E-01
  7.1800E-01  2.5067E-01  5.4206E-01  7.9273E-01
  7.1900E-01  2.4530E-01  6.6007E-01  9.0536E-01
  7.2000E-01  3.9680E-01  7.3045E-01  1.1272E+00
  7.2100E-01  4.4826E-01  7.7455E-01  1.2228E+00
  7.2200E-01  5.4215E-01  7.4462E-01  1.2868E+00
  7.2300E-01  5.7293E-01  6.7213E-01  1.2451E+00
  7.2400E-01  5.3679E-01  6.0592E-01  1.1427E+00
  7.2500E-01  4.9272E-01  5.6717E-01  1.0599E+00
  7.2600E-01  4.5120E-01  5.4756E-01  9.9876E-01
  7.2700E-01  4.2598E-01  5.4099E-01  9.6697E-01
  7.2800E-01  4.0777E-01  5.3702E-01  9.4479E-01
  7.2900E-01  3.9063E-01  5.2971E-01  9.2034E-01
  7.3000E-01  3.7200E-01  5.2187E-01  8.9388E-01
  7.3100E-01  3.5307E-01  5.2504E-01  8.7810E-01
  7.3200E-01  3.3568E-01  5.2823E-01  8.6391E-01
  7.3300E-01  3.3156E-01  5.4121E-01  8.7277E-01
  7.3400E-01  3.2523E-01  5.4992E-01  8.7515E-01
  7.3500E-01  3.2394E-01  5.5833E-01  8.8227E-01
  7.3600E-01  3.2384E-01  5.6684E-01  8.9069E-01
  7.3700E-01  3.2360E-01  5.7367E-01  8.9727E-01
  7.3800E-01  3.2566E-01  5.8238E-01  9.0804E-01
  7.3900E-01  3.2793E-01  5.8866E-01  9.1659E-01
  7.4000E-01  3.3137E-01  5.9615E-01  9.2752E-01
  7.4100E-01  3.3653E-01  6.0184E-01  9.3837E-01
  7.4200E-01  3.4086E-01  6.0639E-01  9.4724E-01
  7.4300E-01  3.4727E-01  6.1261E-01  9.5988E-01
  7.4400E-01  3.5158E-01  6.1651E-01  9.6809E-01
  7.4500E-01  3.5815E-01  6.1876E-01  9.7691E-01
  7.4600E-01  3.6368E-01  6.2055E-01  9.8423E-01
  7.4700E-01  3.6770E-01  6.2186E-01  9.8956E-01
  7.4800E-01  3.7327E-01  6.2152E-01  9.9479E-01
  7.4900E-01  3.7665E-01  6.2237E-01  9.9902E-01
  7.5000E-01  3.7974E-01  6.2083E-01  1.0006E+00
  7.5100E-01  3.8148E-01  6.1979E-01  1.0013E+00
  7.5200E-01  3.8325E-01  6.1874E-01  1.0020E+00
  7.5300E-01  3.8504E-01  6.1769E-01  1.0027E+00
  7.5400E-01  3.8684E-01  6.1662E-01  1.0035E+00
  7.5500E-01  3.8867E-01  6.1555E-01  1.0042E+00
  7.5600E-01  3.9052E-01  6.1447E-01  1.0050E+00
  7.5700E-01  3.9239E-01  6.1339E-01  1.0058E+00
  7.5800E-01  3.9429E-01  6.1229E-01  1.0066E+00
  7.5900E-01  3.9621E-01  6.1119E-01  1.0074E+00
  7.6000E-01  3.9814E-01  6.1008E-01  1.0082E+00
  7.6100E-01  4.0011E-01  6.0896E-01  1.0091E+00
  7.6200E-01  4.0100E-01  6.0793E-01  1.0089E+00
  7.6300E-01  4.0186E-01  6.0690E-01  1.0088E+00
  7.6400E-01  4.0273E-01  6.0587E-01  1.0086E+00
  7.6500E-01  4.0360E-01  6.0482E-01  1.0084E+00
  7.6600E-01  4.0448E-01  6.0377E-01  1.0082E+00
  7.6700E-01  4.0537E-01  6.0271E-01  1.0081E+00
  7.6800E-01  4.0627E-01  6.0164E-01  1.0079E+00
  7.6900E-01  4.0717E-01  6.0057E-01  1.0077E+00
  7.7000E-01  4.0809E-01  5.9949E-01  1.0076E+00
  7.7100E-01  4.0901E-01  5.9840E-01  1.0074E+00
  7.7200E-01  4.0994E-01  5.9730E-01  1.0072E+00
  7.7300E-01  4.1088E-01  5.9620E-01  1.0071E+00
  7.7400E-01  4.1150E-01  5.9516E-01  1.0067E+00
  7.7500E-01  4.1194E-01  5.9415E-01  1.0061E+00
  7.7600E-01  4.1239E-01  5.9313E-01  1.0055E+00
  7.7700E-01  4.1284E-01  5.9211E-01  1.0049E+00
  7.7800E-01  4.1329E-01  5.9108E-01  1.0044E+00
  7.7900E-01  4.1375E-01  5.9004E-01  1.0038E+00
  7.8000E-01  4.1421E-01  5.8900E-01  1.0032E+00
  7.8100E-01  4.1467E-01  5.8795E-01  1.0026E+00
  7.8200E-01  4.1514E-01  5.8689E-01  1.0020E+00
  7.8300E-01  4.1561E-01  5.8583E-01  1.0014E+00
  7.8400E-01  4.1608E-01  5.8476E-01  1.0008E+00
  7.8500E-01  4.1656E-01  5.8368E-01  1.0002E+00
  7.8600E-01  4.1698E-01  5.8261E-01  9.9959E-01
  7.8700E-01  4.1702E-01  5.8165E-01  9.9866E-01
  7.8800E-01  4.1705E-01  5.8068E-01  9.9773E-01
  7.8900E-01  4.1709E-01  5.7970E-01  9.9680E-01
  7.9000E-01  4.1713E-01  5.7872E-01  9.9585E-01
  7.9100E-01  4.1717E-01  5.7774E-01  9.9490E-01
  7.9200E-01  4.1721E-01  5.7674E-01  9.9395E-01
  7.9300E-01  4.1724E-01  5.7574E-01  9.9298E-01
  7.9400E-01  4.1728E-01  5.7473E-01  9.9202E-01
  7.9500E-01  4.1732E-01  5.7372E-01  9.9104E-01
  7.9600E-01  4.1736E-01  5.7270E-01  9.9006E-01
  7.9700E-01  4.1740E-01  5.7168E-01  9.8907E-01
  7.9800E-01  4.1744E-01  5.7064E-01  9.8808E-01
  7.9900E-01  4.1748E-01  5.6986E-01  9.8734E-01
