# GGADT v1.2.1
# =-=-=
# Total cross sections as a function of energy
# -----------------------------------
# Parameter values
# -----------------------------------
# a_eff:                               1.00000E+00 micron
# ephot_min:                           6.00000E-01kiloelectron-vo
# ephot_max:                           8.00000E-01kiloelectron-vo
# nephots:                                     200
# Material file:                                   hematite
# geometry:                                        ellipsoid
# angle_mode:                                      random
# ngrain:                                      128
# norientations:                                 1
# grain-axis-z:                        1.11869E+00 micron
# grain-axis-y:                        1.11869E+00 micron
# grain-axis-z:                        7.99064E-01 micron
# grid-width:                          2.23738E+00 micron
# axes-convention:                                 ddscat
# parameter_file_name:                             large_params_random.ini
# -----------------------------------
 # [ephot (kiloelectron-volt)] [Q_sca] [Q_abs] [Q_ext]
  6.0000E-01  1.0355E+00  9.4283E-01  1.9783E+00
  6.0100E-01  1.0358E+00  9.4260E-01  1.9784E+00
  6.0200E-01  1.0361E+00  9.4236E-01  1.9785E+00
  6.0300E-01  1.0365E+00  9.4211E-01  1.9786E+00
  6.0400E-01  1.0368E+00  9.4186E-01  1.9787E+00
  6.0500E-01  1.0372E+00  9.4161E-01  1.9788E+00
  6.0600E-01  1.0376E+00  9.4135E-01  1.9789E+00
  6.0700E-01  1.0379E+00  9.4109E-01  1.9790E+00
  6.0800E-01  1.0383E+00  9.4083E-01  1.9791E+00
  6.0900E-01  1.0386E+00  9.4059E-01  1.9792E+00
  6.1000E-01  1.0389E+00  9.4034E-01  1.9792E+00
  6.1100E-01  1.0392E+00  9.4009E-01  1.9793E+00
  6.1200E-01  1.0395E+00  9.3983E-01  1.9793E+00
  6.1300E-01  1.0398E+00  9.3957E-01  1.9794E+00
  6.1400E-01  1.0401E+00  9.3931E-01  1.9794E+00
  6.1500E-01  1.0404E+00  9.3904E-01  1.9794E+00
  6.1600E-01  1.0407E+00  9.3877E-01  1.9795E+00
  6.1700E-01  1.0410E+00  9.3850E-01  1.9795E+00
  6.1800E-01  1.0413E+00  9.3822E-01  1.9795E+00
  6.1900E-01  1.0415E+00  9.3796E-01  1.9795E+00
  6.2000E-01  1.0418E+00  9.3770E-01  1.9795E+00
  6.2100E-01  1.0420E+00  9.3744E-01  1.9794E+00
  6.2200E-01  1.0422E+00  9.3717E-01  1.9794E+00
  6.2300E-01  1.0425E+00  9.3689E-01  1.9793E+00
  6.2400E-01  1.0427E+00  9.3661E-01  1.9793E+00
  6.2500E-01  1.0429E+00  9.3633E-01  1.9792E+00
  6.2600E-01  1.0431E+00  9.3605E-01  1.9792E+00
  6.2700E-01  1.0433E+00  9.3575E-01  1.9791E+00
  6.2800E-01  1.0435E+00  9.3546E-01  1.9790E+00
  6.2900E-01  1.0437E+00  9.3518E-01  1.9788E+00
  6.3000E-01  1.0438E+00  9.3490E-01  1.9787E+00
  6.3100E-01  1.0439E+00  9.3461E-01  1.9785E+00
  6.3200E-01  1.0441E+00  9.3432E-01  1.9784E+00
  6.3300E-01  1.0442E+00  9.3402E-01  1.9782E+00
  6.3400E-01  1.0443E+00  9.3372E-01  1.9780E+00
  6.3500E-01  1.0444E+00  9.3341E-01  1.9778E+00
  6.3600E-01  1.0445E+00  9.3310E-01  1.9776E+00
  6.3700E-01  1.0446E+00  9.3279E-01  1.9774E+00
  6.3800E-01  1.0447E+00  9.3247E-01  1.9772E+00
  6.3900E-01  1.0447E+00  9.3216E-01  1.9769E+00
  6.4000E-01  1.0447E+00  9.3185E-01  1.9766E+00
  6.4100E-01  1.0447E+00  9.3154E-01  1.9763E+00
  6.4200E-01  1.0447E+00  9.3122E-01  1.9759E+00
  6.4300E-01  1.0447E+00  9.3089E-01  1.9756E+00
  6.4400E-01  1.0447E+00  9.3056E-01  1.9753E+00
  6.4500E-01  1.0447E+00  9.3022E-01  1.9749E+00
  6.4600E-01  1.0447E+00  9.2988E-01  1.9745E+00
  6.4700E-01  1.0446E+00  9.2954E-01  1.9742E+00
  6.4800E-01  1.0446E+00  9.2919E-01  1.9738E+00
  6.4900E-01  1.0445E+00  9.2885E-01  1.9733E+00
  6.5000E-01  1.0443E+00  9.2851E-01  1.9729E+00
  6.5100E-01  1.0442E+00  9.2817E-01  1.9724E+00
  6.5200E-01  1.0441E+00  9.2783E-01  1.9719E+00
  6.5300E-01  1.0439E+00  9.2748E-01  1.9714E+00
  6.5400E-01  1.0438E+00  9.2712E-01  1.9709E+00
  6.5500E-01  1.0437E+00  9.2676E-01  1.9705E+00
  6.5600E-01  1.0436E+00  9.2639E-01  1.9700E+00
  6.5700E-01  1.0435E+00  9.2602E-01  1.9695E+00
  6.5800E-01  1.0434E+00  9.2564E-01  1.9691E+00
  6.5900E-01  1.0433E+00  9.2526E-01  1.9686E+00
  6.6000E-01  1.0432E+00  9.2491E-01  1.9681E+00
  6.6100E-01  1.0431E+00  9.2455E-01  1.9676E+00
  6.6200E-01  1.0430E+00  9.2419E-01  1.9672E+00
  6.6300E-01  1.0429E+00  9.2382E-01  1.9668E+00
  6.6400E-01  1.0430E+00  9.2345E-01  1.9664E+00
  6.6500E-01  1.0430E+00  9.2307E-01  1.9661E+00
  6.6600E-01  1.0432E+00  9.2269E-01  1.9658E+00
  6.6700E-01  1.0434E+00  9.2230E-01  1.9657E+00
  6.6800E-01  1.0436E+00  9.2190E-01  1.9655E+00
  6.6900E-01  1.0440E+00  9.2150E-01  1.9655E+00
  6.7000E-01  1.0444E+00  9.2113E-01  1.9655E+00
  6.7100E-01  1.0450E+00  9.2078E-01  1.9658E+00
  6.7200E-01  1.0458E+00  9.2043E-01  1.9662E+00
  6.7300E-01  1.0467E+00  9.2007E-01  1.9668E+00
  6.7400E-01  1.0478E+00  9.1971E-01  1.9675E+00
  6.7500E-01  1.0491E+00  9.1934E-01  1.9685E+00
  6.7600E-01  1.0506E+00  9.1897E-01  1.9696E+00
  6.7700E-01  1.0523E+00  9.1859E-01  1.9709E+00
  6.7800E-01  1.0543E+00  9.1821E-01  1.9725E+00
  6.7900E-01  1.0564E+00  9.1782E-01  1.9742E+00
  6.8000E-01  1.0587E+00  9.1743E-01  1.9762E+00
  6.8100E-01  1.0622E+00  9.1708E-01  1.9793E+00
  6.8200E-01  1.0662E+00  9.1673E-01  1.9830E+00
  6.8300E-01  1.0707E+00  9.1638E-01  1.9871E+00
  6.8400E-01  1.0755E+00  9.1602E-01  1.9915E+00
  6.8500E-01  1.0807E+00  9.1566E-01  1.9964E+00
  6.8600E-01  1.0862E+00  9.1530E-01  2.0015E+00
  6.8700E-01  1.0920E+00  9.1493E-01  2.0069E+00
  6.8800E-01  1.0980E+00  9.1455E-01  2.0125E+00
  6.8900E-01  1.1041E+00  9.1418E-01  2.0183E+00
  6.9000E-01  1.1104E+00  9.1379E-01  2.0241E+00
  6.9100E-01  1.1282E+00  9.1014E-01  2.0383E+00
  6.9200E-01  1.1338E+00  9.1195E-01  2.0457E+00
  6.9300E-01  1.1493E+00  9.0951E-01  2.0588E+00
  6.9400E-01  1.1527E+00  9.1000E-01  2.0627E+00
  6.9500E-01  1.1498E+00  9.1198E-01  2.0618E+00
  6.9600E-01  1.1540E+00  9.0988E-01  2.0639E+00
  6.9700E-01  1.1402E+00  9.1037E-01  2.0506E+00
  6.9800E-01  1.1171E+00  9.0960E-01  2.0267E+00
  6.9900E-01  1.0655E+00  9.1016E-01  1.9757E+00
  7.0000E-01  9.8536E-01  9.0873E-01  1.8941E+00
  7.0100E-01  8.6356E-01  9.1263E-01  1.7762E+00
  7.0200E-01  7.1732E-01  9.1125E-01  1.6286E+00
  7.0300E-01  6.6222E-01  9.1653E-01  1.5788E+00
  7.0400E-01  8.5779E-01  9.2391E-01  1.7817E+00
  7.0500E-01  1.0545E+00  9.4069E-01  1.9952E+00
  7.0600E-01  9.8249E-01  9.7055E-01  1.9530E+00
  7.0700E-01  9.6604E-01  9.7322E-01  1.9393E+00
  7.0800E-01  9.7265E-01  9.7501E-01  1.9477E+00
  7.0900E-01  9.7477E-01  9.7440E-01  1.9492E+00
  7.1000E-01  9.7872E-01  9.7276E-01  1.9515E+00
  7.1100E-01  9.8124E-01  9.7139E-01  1.9526E+00
  7.1200E-01  9.8505E-01  9.6977E-01  1.9548E+00
  7.1300E-01  9.9096E-01  9.6700E-01  1.9580E+00
  7.1400E-01  9.9464E-01  9.6512E-01  1.9598E+00
  7.1500E-01  9.9659E-01  9.6397E-01  1.9606E+00
  7.1600E-01  1.0004E+00  9.6177E-01  1.9622E+00
  7.1700E-01  1.0026E+00  9.5964E-01  1.9623E+00
  7.1800E-01  9.9206E-01  9.6149E-01  1.9535E+00
  7.1900E-01  9.5416E-01  9.6839E-01  1.9226E+00
  7.2000E-01  9.7201E-01  9.7082E-01  1.9428E+00
  7.2100E-01  9.7113E-01  9.7197E-01  1.9431E+00
  7.2200E-01  9.7921E-01  9.7122E-01  1.9504E+00
  7.2300E-01  9.8668E-01  9.6887E-01  1.9555E+00
  7.2400E-01  9.9351E-01  9.6579E-01  1.9593E+00
  7.2500E-01  9.9855E-01  9.6338E-01  1.9619E+00
  7.2600E-01  1.0013E+00  9.6193E-01  1.9632E+00
  7.2700E-01  1.0020E+00  9.6140E-01  1.9634E+00
  7.2800E-01  1.0022E+00  9.6107E-01  1.9633E+00
  7.2900E-01  1.0031E+00  9.6045E-01  1.9635E+00
  7.3000E-01  1.0040E+00  9.5974E-01  1.9637E+00
  7.3100E-01  1.0028E+00  9.6003E-01  1.9628E+00
  7.3200E-01  1.0015E+00  9.6032E-01  1.9619E+00
  7.3300E-01  9.9881E-01  9.6142E-01  1.9602E+00
  7.3400E-01  9.9676E-01  9.6211E-01  1.9589E+00
  7.3500E-01  9.9500E-01  9.6275E-01  1.9577E+00
  7.3600E-01  9.9327E-01  9.6336E-01  1.9566E+00
  7.3700E-01  9.9188E-01  9.6382E-01  1.9557E+00
  7.3800E-01  9.9029E-01  9.6439E-01  1.9547E+00
  7.3900E-01  9.8923E-01  9.6478E-01  1.9540E+00
  7.4000E-01  9.8805E-01  9.6523E-01  1.9533E+00
  7.4100E-01  9.8739E-01  9.6556E-01  1.9530E+00
  7.4200E-01  9.8689E-01  9.6582E-01  1.9527E+00
  7.4300E-01  9.8628E-01  9.6616E-01  1.9524E+00
  7.4400E-01  9.8592E-01  9.6636E-01  1.9523E+00
  7.4500E-01  9.8604E-01  9.6648E-01  1.9525E+00
  7.4600E-01  9.8614E-01  9.6657E-01  1.9527E+00
  7.4700E-01  9.8621E-01  9.6664E-01  1.9528E+00
  7.4800E-01  9.8664E-01  9.6662E-01  1.9533E+00
  7.4900E-01  9.8673E-01  9.6666E-01  1.9534E+00
  7.5000E-01  9.8717E-01  9.6659E-01  1.9538E+00
  7.5100E-01  9.8744E-01  9.6653E-01  1.9540E+00
  7.5200E-01  9.8772E-01  9.6648E-01  1.9542E+00
  7.5300E-01  9.8799E-01  9.6642E-01  1.9544E+00
  7.5400E-01  9.8826E-01  9.6637E-01  1.9546E+00
  7.5500E-01  9.8853E-01  9.6631E-01  1.9548E+00
  7.5600E-01  9.8880E-01  9.6626E-01  1.9551E+00
  7.5700E-01  9.8907E-01  9.6620E-01  1.9553E+00
  7.5800E-01  9.8934E-01  9.6614E-01  1.9555E+00
  7.5900E-01  9.8960E-01  9.6608E-01  1.9557E+00
  7.6000E-01  9.8987E-01  9.6602E-01  1.9559E+00
  7.6100E-01  9.9014E-01  9.6596E-01  1.9561E+00
  7.6200E-01  9.9034E-01  9.6590E-01  1.9562E+00
  7.6300E-01  9.9053E-01  9.6585E-01  1.9564E+00
  7.6400E-01  9.9073E-01  9.6579E-01  1.9565E+00
  7.6500E-01  9.9093E-01  9.6573E-01  1.9567E+00
  7.6600E-01  9.9113E-01  9.6567E-01  1.9568E+00
  7.6700E-01  9.9133E-01  9.6561E-01  1.9569E+00
  7.6800E-01  9.9154E-01  9.6555E-01  1.9571E+00
  7.6900E-01  9.9174E-01  9.6549E-01  1.9572E+00
  7.7000E-01  9.9194E-01  9.6543E-01  1.9574E+00
  7.7100E-01  9.9215E-01  9.6537E-01  1.9575E+00
  7.7200E-01  9.9235E-01  9.6530E-01  1.9577E+00
  7.7300E-01  9.9256E-01  9.6524E-01  1.9578E+00
  7.7400E-01  9.9274E-01  9.6518E-01  1.9579E+00
  7.7500E-01  9.9292E-01  9.6512E-01  1.9580E+00
  7.7600E-01  9.9309E-01  9.6506E-01  1.9581E+00
  7.7700E-01  9.9327E-01  9.6499E-01  1.9583E+00
  7.7800E-01  9.9344E-01  9.6493E-01  1.9584E+00
  7.7900E-01  9.9362E-01  9.6487E-01  1.9585E+00
  7.8000E-01  9.9380E-01  9.6481E-01  1.9586E+00
  7.8100E-01  9.9398E-01  9.6474E-01  1.9587E+00
  7.8200E-01  9.9416E-01  9.6468E-01  1.9588E+00
  7.8300E-01  9.9434E-01  9.6461E-01  1.9589E+00
  7.8400E-01  9.9452E-01  9.6454E-01  1.9591E+00
  7.8500E-01  9.9471E-01  9.6447E-01  1.9592E+00
  7.8600E-01  9.9489E-01  9.6441E-01  1.9593E+00
  7.8700E-01  9.9504E-01  9.6435E-01  1.9594E+00
  7.8800E-01  9.9520E-01  9.6428E-01  1.9595E+00
  7.8900E-01  9.9535E-01  9.6422E-01  1.9596E+00
  7.9000E-01  9.9551E-01  9.6416E-01  1.9597E+00
  7.9100E-01  9.9567E-01  9.6409E-01  1.9598E+00
  7.9200E-01  9.9583E-01  9.6403E-01  1.9599E+00
  7.9300E-01  9.9599E-01  9.6396E-01  1.9599E+00
  7.9400E-01  9.9615E-01  9.6390E-01  1.9600E+00
  7.9500E-01  9.9631E-01  9.6383E-01  1.9601E+00
  7.9600E-01  9.9648E-01  9.6376E-01  1.9602E+00
  7.9700E-01  9.9664E-01  9.6369E-01  1.9603E+00
  7.9800E-01  9.9681E-01  9.6362E-01  1.9604E+00
  7.9900E-01  9.9694E-01  9.6357E-01  1.9605E+00
