# GGADT v1.2.1
# =-=-=
# Total cross sections as a function of energy
# -----------------------------------
# Parameter values
# -----------------------------------
# a_eff:                               7.44516E-01 micron
# ephot_min:                           6.00000E-01kiloelectron-vo
# ephot_max:                           8.00000E-01kiloelectron-vo
# nephots:                                     200
# Material file:                                   hematite
# geometry:                                        ellipsoid
# angle_mode:                                      file
# angle_file:                                      angles
# ngrain:                                      128
# norientations:                                 1
# grain-axis-z:                        8.32882E-01 micron
# grain-axis-y:                        8.32882E-01 micron
# grain-axis-z:                        5.94916E-01 micron
# grid-width:                          1.66576E+00 micron
# axes-convention:                                 ddscat
# parameter_file_name:                             large_params_set.ini
# -----------------------------------
 # [ephot (kiloelectron-volt)] [Q_sca] [Q_abs] [Q_ext]
  6.0000E-01  1.4951E+00  1.1357E+00  2.6308E+00
  6.0100E-01  1.4974E+00  1.1350E+00  2.6324E+00
  6.0200E-01  1.4997E+00  1.1342E+00  2.6339E+00
  6.0300E-01  1.5021E+00  1.1334E+00  2.6355E+00
  6.0400E-01  1.5045E+00  1.1326E+00  2.6371E+00
  6.0500E-01  1.5070E+00  1.1318E+00  2.6388E+00
  6.0600E-01  1.5095E+00  1.1310E+00  2.6405E+00
  6.0700E-01  1.5120E+00  1.1302E+00  2.6422E+00
  6.0800E-01  1.5146E+00  1.1294E+00  2.6439E+00
  6.0900E-01  1.5172E+00  1.1286E+00  2.6458E+00
  6.1000E-01  1.5200E+00  1.1278E+00  2.6478E+00
  6.1100E-01  1.5227E+00  1.1270E+00  2.6497E+00
  6.1200E-01  1.5255E+00  1.1262E+00  2.6517E+00
  6.1300E-01  1.5284E+00  1.1254E+00  2.6538E+00
  6.1400E-01  1.5312E+00  1.1246E+00  2.6559E+00
  6.1500E-01  1.5342E+00  1.1238E+00  2.6580E+00
  6.1600E-01  1.5372E+00  1.1229E+00  2.6601E+00
  6.1700E-01  1.5402E+00  1.1221E+00  2.6623E+00
  6.1800E-01  1.5433E+00  1.1212E+00  2.6645E+00
  6.1900E-01  1.5464E+00  1.1204E+00  2.6669E+00
  6.2000E-01  1.5496E+00  1.1196E+00  2.6693E+00
  6.2100E-01  1.5529E+00  1.1188E+00  2.6717E+00
  6.2200E-01  1.5562E+00  1.1180E+00  2.6742E+00
  6.2300E-01  1.5595E+00  1.1172E+00  2.6767E+00
  6.2400E-01  1.5629E+00  1.1163E+00  2.6792E+00
  6.2500E-01  1.5664E+00  1.1155E+00  2.6818E+00
  6.2600E-01  1.5699E+00  1.1146E+00  2.6844E+00
  6.2700E-01  1.5734E+00  1.1137E+00  2.6871E+00
  6.2800E-01  1.5770E+00  1.1128E+00  2.6898E+00
  6.2900E-01  1.5807E+00  1.1120E+00  2.6927E+00
  6.3000E-01  1.5845E+00  1.1111E+00  2.6956E+00
  6.3100E-01  1.5883E+00  1.1103E+00  2.6986E+00
  6.3200E-01  1.5922E+00  1.1094E+00  2.7016E+00
  6.3300E-01  1.5961E+00  1.1085E+00  2.7046E+00
  6.3400E-01  1.6001E+00  1.1076E+00  2.7077E+00
  6.3500E-01  1.6041E+00  1.1067E+00  2.7108E+00
  6.3600E-01  1.6082E+00  1.1058E+00  2.7139E+00
  6.3700E-01  1.6123E+00  1.1048E+00  2.7171E+00
  6.3800E-01  1.6165E+00  1.1039E+00  2.7203E+00
  6.3900E-01  1.6209E+00  1.1030E+00  2.7238E+00
  6.4000E-01  1.6253E+00  1.1021E+00  2.7274E+00
  6.4100E-01  1.6298E+00  1.1011E+00  2.7309E+00
  6.4200E-01  1.6343E+00  1.1002E+00  2.7345E+00
  6.4300E-01  1.6389E+00  1.0992E+00  2.7381E+00
  6.4400E-01  1.6435E+00  1.0983E+00  2.7417E+00
  6.4500E-01  1.6481E+00  1.0973E+00  2.7454E+00
  6.4600E-01  1.6528E+00  1.0963E+00  2.7491E+00
  6.4700E-01  1.6575E+00  1.0953E+00  2.7528E+00
  6.4800E-01  1.6622E+00  1.0943E+00  2.7565E+00
  6.4900E-01  1.6672E+00  1.0933E+00  2.7605E+00
  6.5000E-01  1.6723E+00  1.0923E+00  2.7646E+00
  6.5100E-01  1.6773E+00  1.0914E+00  2.7687E+00
  6.5200E-01  1.6824E+00  1.0904E+00  2.7728E+00
  6.5300E-01  1.6875E+00  1.0894E+00  2.7769E+00
  6.5400E-01  1.6926E+00  1.0884E+00  2.7810E+00
  6.5500E-01  1.6977E+00  1.0873E+00  2.7850E+00
  6.5600E-01  1.7028E+00  1.0863E+00  2.7891E+00
  6.5700E-01  1.7079E+00  1.0852E+00  2.7932E+00
  6.5800E-01  1.7130E+00  1.0842E+00  2.7972E+00
  6.5900E-01  1.7182E+00  1.0831E+00  2.8013E+00
  6.6000E-01  1.7236E+00  1.0821E+00  2.8057E+00
  6.6100E-01  1.7289E+00  1.0811E+00  2.8100E+00
  6.6200E-01  1.7341E+00  1.0801E+00  2.8142E+00
  6.6300E-01  1.7392E+00  1.0791E+00  2.8183E+00
  6.6400E-01  1.7443E+00  1.0780E+00  2.8223E+00
  6.6500E-01  1.7492E+00  1.0770E+00  2.8262E+00
  6.6600E-01  1.7541E+00  1.0759E+00  2.8300E+00
  6.6700E-01  1.7588E+00  1.0749E+00  2.8337E+00
  6.6800E-01  1.7634E+00  1.0738E+00  2.8372E+00
  6.6900E-01  1.7679E+00  1.0727E+00  2.8406E+00
  6.7000E-01  1.7723E+00  1.0717E+00  2.8439E+00
  6.7100E-01  1.7763E+00  1.0707E+00  2.8470E+00
  6.7200E-01  1.7800E+00  1.0698E+00  2.8497E+00
  6.7300E-01  1.7833E+00  1.0688E+00  2.8520E+00
  6.7400E-01  1.7862E+00  1.0678E+00  2.8540E+00
  6.7500E-01  1.7888E+00  1.0668E+00  2.8556E+00
  6.7600E-01  1.7909E+00  1.0658E+00  2.8567E+00
  6.7700E-01  1.7926E+00  1.0648E+00  2.8574E+00
  6.7800E-01  1.7938E+00  1.0638E+00  2.8576E+00
  6.7900E-01  1.7946E+00  1.0627E+00  2.8573E+00
  6.8000E-01  1.7949E+00  1.0617E+00  2.8566E+00
  6.8100E-01  1.7930E+00  1.0607E+00  2.8537E+00
  6.8200E-01  1.7896E+00  1.0598E+00  2.8494E+00
  6.8300E-01  1.7849E+00  1.0589E+00  2.8438E+00
  6.8400E-01  1.7790E+00  1.0579E+00  2.8369E+00
  6.8500E-01  1.7718E+00  1.0570E+00  2.8288E+00
  6.8600E-01  1.7634E+00  1.0560E+00  2.8194E+00
  6.8700E-01  1.7535E+00  1.0550E+00  2.8086E+00
  6.8800E-01  1.7424E+00  1.0541E+00  2.7964E+00
  6.8900E-01  1.7298E+00  1.0531E+00  2.7829E+00
  6.9000E-01  1.7159E+00  1.0521E+00  2.7679E+00
  6.9100E-01  1.7055E+00  1.0427E+00  2.7481E+00
  6.9200E-01  1.6541E+00  1.0473E+00  2.7014E+00
  6.9300E-01  1.6175E+00  1.0410E+00  2.6585E+00
  6.9400E-01  1.5760E+00  1.0423E+00  2.6183E+00
  6.9500E-01  1.4992E+00  1.0474E+00  2.5466E+00
  6.9600E-01  1.4335E+00  1.0420E+00  2.4755E+00
  6.9700E-01  1.3399E+00  1.0432E+00  2.3831E+00
  6.9800E-01  1.2356E+00  1.0413E+00  2.2769E+00
  6.9900E-01  1.1001E+00  1.0427E+00  2.1428E+00
  7.0000E-01  9.4091E-01  1.0391E+00  1.9800E+00
  7.0100E-01  7.7235E-01  1.0491E+00  1.8214E+00
  7.0200E-01  5.9695E-01  1.0455E+00  1.6424E+00
  7.0300E-01  5.4529E-01  1.0593E+00  1.6046E+00
  7.0400E-01  7.8950E-01  1.0793E+00  1.8688E+00
  7.0500E-01  1.4266E+00  1.1289E+00  2.5556E+00
  7.0600E-01  1.2793E+00  1.2330E+00  2.5123E+00
  7.0700E-01  1.2173E+00  1.2425E+00  2.4597E+00
  7.0800E-01  1.2409E+00  1.2483E+00  2.4892E+00
  7.0900E-01  1.2488E+00  1.2465E+00  2.4952E+00
  7.1000E-01  1.2643E+00  1.2409E+00  2.5052E+00
  7.1100E-01  1.2741E+00  1.2360E+00  2.5101E+00
  7.1200E-01  1.2879E+00  1.2302E+00  2.5180E+00
  7.1300E-01  1.3101E+00  1.2200E+00  2.5301E+00
  7.1400E-01  1.3309E+00  1.2131E+00  2.5440E+00
  7.1500E-01  1.3464E+00  1.2088E+00  2.5552E+00
  7.1600E-01  1.3743E+00  1.2008E+00  2.5751E+00
  7.1700E-01  1.3962E+00  1.1930E+00  2.5892E+00
  7.1800E-01  1.3133E+00  1.1997E+00  2.5131E+00
  7.1900E-01  1.1656E+00  1.2251E+00  2.3907E+00
  7.2000E-01  1.2412E+00  1.2340E+00  2.4752E+00
  7.2100E-01  1.2373E+00  1.2381E+00  2.4754E+00
  7.2200E-01  1.2679E+00  1.2354E+00  2.5033E+00
  7.2300E-01  1.2948E+00  1.2269E+00  2.5216E+00
  7.2400E-01  1.3207E+00  1.2155E+00  2.5363E+00
  7.2500E-01  1.3448E+00  1.2067E+00  2.5515E+00
  7.2600E-01  1.3648E+00  1.2014E+00  2.5661E+00
  7.2700E-01  1.3745E+00  1.1994E+00  2.5739E+00
  7.2800E-01  1.3807E+00  1.1982E+00  2.5790E+00
  7.2900E-01  1.3897E+00  1.1960E+00  2.5857E+00
  7.3000E-01  1.3993E+00  1.1934E+00  2.5927E+00
  7.3100E-01  1.3957E+00  1.1944E+00  2.5901E+00
  7.3200E-01  1.3895E+00  1.1955E+00  2.5850E+00
  7.3300E-01  1.3731E+00  1.1995E+00  2.5726E+00
  7.3400E-01  1.3608E+00  1.2020E+00  2.5629E+00
  7.3500E-01  1.3507E+00  1.2043E+00  2.5551E+00
  7.3600E-01  1.3412E+00  1.2066E+00  2.5477E+00
  7.3700E-01  1.3336E+00  1.2083E+00  2.5419E+00
  7.3800E-01  1.3253E+00  1.2104E+00  2.5357E+00
  7.3900E-01  1.3199E+00  1.2118E+00  2.5318E+00
  7.4000E-01  1.3141E+00  1.2135E+00  2.5276E+00
  7.4100E-01  1.3109E+00  1.2147E+00  2.5256E+00
  7.4200E-01  1.3086E+00  1.2156E+00  2.5242E+00
  7.4300E-01  1.3056E+00  1.2169E+00  2.5225E+00
  7.4400E-01  1.3039E+00  1.2176E+00  2.5215E+00
  7.4500E-01  1.3044E+00  1.2181E+00  2.5225E+00
  7.4600E-01  1.3048E+00  1.2184E+00  2.5232E+00
  7.4700E-01  1.3050E+00  1.2187E+00  2.5236E+00
  7.4800E-01  1.3069E+00  1.2186E+00  2.5255E+00
  7.4900E-01  1.3072E+00  1.2188E+00  2.5259E+00
  7.5000E-01  1.3092E+00  1.2185E+00  2.5276E+00
  7.5100E-01  1.3104E+00  1.2183E+00  2.5287E+00
  7.5200E-01  1.3116E+00  1.2181E+00  2.5297E+00
  7.5300E-01  1.3129E+00  1.2179E+00  2.5307E+00
  7.5400E-01  1.3141E+00  1.2177E+00  2.5317E+00
  7.5500E-01  1.3152E+00  1.2175E+00  2.5327E+00
  7.5600E-01  1.3164E+00  1.2172E+00  2.5337E+00
  7.5700E-01  1.3176E+00  1.2170E+00  2.5346E+00
  7.5800E-01  1.3187E+00  1.2168E+00  2.5355E+00
  7.5900E-01  1.3198E+00  1.2166E+00  2.5365E+00
  7.6000E-01  1.3210E+00  1.2164E+00  2.5373E+00
  7.6100E-01  1.3221E+00  1.2162E+00  2.5382E+00
  7.6200E-01  1.3229E+00  1.2159E+00  2.5389E+00
  7.6300E-01  1.3238E+00  1.2157E+00  2.5396E+00
  7.6400E-01  1.3247E+00  1.2155E+00  2.5402E+00
  7.6500E-01  1.3256E+00  1.2153E+00  2.5409E+00
  7.6600E-01  1.3264E+00  1.2151E+00  2.5415E+00
  7.6700E-01  1.3273E+00  1.2149E+00  2.5422E+00
  7.6800E-01  1.3282E+00  1.2147E+00  2.5428E+00
  7.6900E-01  1.3291E+00  1.2144E+00  2.5435E+00
  7.7000E-01  1.3299E+00  1.2142E+00  2.5441E+00
  7.7100E-01  1.3308E+00  1.2140E+00  2.5448E+00
  7.7200E-01  1.3317E+00  1.2137E+00  2.5454E+00
  7.7300E-01  1.3325E+00  1.2135E+00  2.5460E+00
  7.7400E-01  1.3333E+00  1.2133E+00  2.5466E+00
  7.7500E-01  1.3341E+00  1.2130E+00  2.5472E+00
  7.7600E-01  1.3349E+00  1.2128E+00  2.5477E+00
  7.7700E-01  1.3357E+00  1.2126E+00  2.5483E+00
  7.7800E-01  1.3364E+00  1.2124E+00  2.5488E+00
  7.7900E-01  1.3372E+00  1.2121E+00  2.5494E+00
  7.8000E-01  1.3380E+00  1.2119E+00  2.5499E+00
  7.8100E-01  1.3388E+00  1.2117E+00  2.5505E+00
  7.8200E-01  1.3396E+00  1.2114E+00  2.5510E+00
  7.8300E-01  1.3404E+00  1.2112E+00  2.5516E+00
  7.8400E-01  1.3412E+00  1.2109E+00  2.5521E+00
  7.8500E-01  1.3420E+00  1.2107E+00  2.5527E+00
  7.8600E-01  1.3428E+00  1.2104E+00  2.5532E+00
  7.8700E-01  1.3435E+00  1.2102E+00  2.5537E+00
  7.8800E-01  1.3443E+00  1.2100E+00  2.5542E+00
  7.8900E-01  1.3450E+00  1.2098E+00  2.5547E+00
  7.9000E-01  1.3457E+00  1.2095E+00  2.5553E+00
  7.9100E-01  1.3465E+00  1.2093E+00  2.5558E+00
  7.9200E-01  1.3472E+00  1.2090E+00  2.5563E+00
  7.9300E-01  1.3480E+00  1.2088E+00  2.5568E+00
  7.9400E-01  1.3488E+00  1.2086E+00  2.5573E+00
  7.9500E-01  1.3495E+00  1.2083E+00  2.5579E+00
  7.9600E-01  1.3503E+00  1.2081E+00  2.5584E+00
  7.9700E-01  1.3511E+00  1.2078E+00  2.5589E+00
  7.9800E-01  1.3519E+00  1.2075E+00  2.5595E+00
  7.9900E-01  1.3525E+00  1.2073E+00  2.5599E+00
