# GGADT v1.2.1
# =-=-=
# Total cross sections as a function of energy
# -----------------------------------
# Parameter values
# -----------------------------------
# a_eff:                               1.00000E-02 micron
# ephot_min:                           6.00000E-01kiloelectron-vo
# ephot_max:                           8.00000E-01kiloelectron-vo
# nephots:                                     200
# Material file:                                   hematite
# geometry:                                        ellipsoid
# angle_mode:                                      file
# angle_file:                                      angles
# ngrain:                                      128
# norientations:                                 1
# grain-axis-z:                        1.00000E-02 micron
# grain-axis-y:                        1.00000E-02 micron
# grain-axis-z:                        1.00000E-02 micron
# grid-width:                          2.00000E-02 micron
# axes-convention:                                 ddscat
# parameter_file_name:                             small_params_set.ini
# -----------------------------------
 # [ephot (kiloelectron-volt)] [Q_sca] [Q_abs] [Q_ext]
  6.0000E-01  5.7143E-03  4.9176E-02  5.4891E-02
  6.0100E-01  5.6935E-03  4.8999E-02  5.4692E-02
  6.0200E-01  5.6726E-03  4.8820E-02  5.4493E-02
  6.0300E-01  5.6515E-03  4.8641E-02  5.4293E-02
  6.0400E-01  5.6304E-03  4.8461E-02  5.4091E-02
  6.0500E-01  5.6092E-03  4.8280E-02  5.3889E-02
  6.0600E-01  5.5879E-03  4.8098E-02  5.3686E-02
  6.0700E-01  5.5666E-03  4.7915E-02  5.3481E-02
  6.0800E-01  5.5450E-03  4.7732E-02  5.3277E-02
  6.0900E-01  5.5211E-03  4.7565E-02  5.3086E-02
  6.1000E-01  5.4971E-03  4.7397E-02  5.2894E-02
  6.1100E-01  5.4730E-03  4.7228E-02  5.2701E-02
  6.1200E-01  5.4488E-03  4.7058E-02  5.2507E-02
  6.1300E-01  5.4246E-03  4.6887E-02  5.2312E-02
  6.1400E-01  5.4003E-03  4.6716E-02  5.2116E-02
  6.1500E-01  5.3759E-03  4.6544E-02  5.1919E-02
  6.1600E-01  5.3514E-03  4.6370E-02  5.1722E-02
  6.1700E-01  5.3268E-03  4.6196E-02  5.1523E-02
  6.1800E-01  5.3017E-03  4.6025E-02  5.1327E-02
  6.1900E-01  5.2748E-03  4.5866E-02  5.1141E-02
  6.2000E-01  5.2479E-03  4.5706E-02  5.0954E-02
  6.2100E-01  5.2209E-03  4.5545E-02  5.0766E-02
  6.2200E-01  5.1939E-03  4.5383E-02  5.0577E-02
  6.2300E-01  5.1667E-03  4.5220E-02  5.0387E-02
  6.2400E-01  5.1396E-03  4.5057E-02  5.0196E-02
  6.2500E-01  5.1123E-03  4.4893E-02  5.0005E-02
  6.2600E-01  5.0850E-03  4.4728E-02  4.9813E-02
  6.2700E-01  5.0576E-03  4.4562E-02  4.9619E-02
  6.2800E-01  5.0295E-03  4.4398E-02  4.9428E-02
  6.2900E-01  4.9995E-03  4.4242E-02  4.9242E-02
  6.3000E-01  4.9694E-03  4.4086E-02  4.9055E-02
  6.3100E-01  4.9393E-03  4.3928E-02  4.8867E-02
  6.3200E-01  4.9091E-03  4.3770E-02  4.8679E-02
  6.3300E-01  4.8789E-03  4.3611E-02  4.8490E-02
  6.3400E-01  4.8486E-03  4.3451E-02  4.8300E-02
  6.3500E-01  4.8182E-03  4.3291E-02  4.8109E-02
  6.3600E-01  4.7879E-03  4.3130E-02  4.7917E-02
  6.3700E-01  4.7574E-03  4.2968E-02  4.7725E-02
  6.3800E-01  4.7266E-03  4.2806E-02  4.7532E-02
  6.3900E-01  4.6926E-03  4.2652E-02  4.7344E-02
  6.4000E-01  4.6585E-03  4.2497E-02  4.7155E-02
  6.4100E-01  4.6244E-03  4.2341E-02  4.6966E-02
  6.4200E-01  4.5902E-03  4.2185E-02  4.6775E-02
  6.4300E-01  4.5561E-03  4.2028E-02  4.6584E-02
  6.4400E-01  4.5219E-03  4.1870E-02  4.6392E-02
  6.4500E-01  4.4877E-03  4.1712E-02  4.6200E-02
  6.4600E-01  4.4534E-03  4.1553E-02  4.6006E-02
  6.4700E-01  4.4192E-03  4.1393E-02  4.5812E-02
  6.4800E-01  4.3849E-03  4.1233E-02  4.5617E-02
  6.4900E-01  4.3466E-03  4.1080E-02  4.5427E-02
  6.5000E-01  4.3072E-03  4.0930E-02  4.5237E-02
  6.5100E-01  4.2678E-03  4.0779E-02  4.5047E-02
  6.5200E-01  4.2284E-03  4.0627E-02  4.4855E-02
  6.5300E-01  4.1890E-03  4.0475E-02  4.4664E-02
  6.5400E-01  4.1496E-03  4.0322E-02  4.4471E-02
  6.5500E-01  4.1103E-03  4.0168E-02  4.4278E-02
  6.5600E-01  4.0710E-03  4.0013E-02  4.4084E-02
  6.5700E-01  4.0317E-03  3.9858E-02  4.3890E-02
  6.5800E-01  3.9924E-03  3.9702E-02  4.3695E-02
  6.5900E-01  3.9509E-03  3.9550E-02  4.3501E-02
  6.6000E-01  3.9036E-03  3.9408E-02  4.3312E-02
  6.6100E-01  3.8564E-03  3.9266E-02  4.3122E-02
  6.6200E-01  3.8093E-03  3.9122E-02  4.2932E-02
  6.6300E-01  3.7624E-03  3.8978E-02  4.2741E-02
  6.6400E-01  3.7156E-03  3.8834E-02  4.2549E-02
  6.6500E-01  3.6689E-03  3.8689E-02  4.2358E-02
  6.6600E-01  3.6223E-03  3.8543E-02  4.2165E-02
  6.6700E-01  3.5758E-03  3.8396E-02  4.1972E-02
  6.6800E-01  3.5295E-03  3.8249E-02  4.1779E-02
  6.6900E-01  3.4833E-03  3.8102E-02  4.1585E-02
  6.7000E-01  3.4283E-03  3.7968E-02  4.1396E-02
  6.7100E-01  3.3683E-03  3.7843E-02  4.1211E-02
  6.7200E-01  3.3087E-03  3.7717E-02  4.1025E-02
  6.7300E-01  3.2495E-03  3.7590E-02  4.0839E-02
  6.7400E-01  3.1906E-03  3.7463E-02  4.0653E-02
  6.7500E-01  3.1321E-03  3.7335E-02  4.0467E-02
  6.7600E-01  3.0739E-03  3.7207E-02  4.0281E-02
  6.7700E-01  3.0161E-03  3.7078E-02  4.0094E-02
  6.7800E-01  2.9587E-03  3.6948E-02  3.9907E-02
  6.7900E-01  2.9017E-03  3.6818E-02  3.9720E-02
  6.8000E-01  2.8451E-03  3.6688E-02  3.9533E-02
  6.8100E-01  2.7688E-03  3.6572E-02  3.9341E-02
  6.8200E-01  2.6888E-03  3.6459E-02  3.9148E-02
  6.8300E-01  2.6098E-03  3.6346E-02  3.8955E-02
  6.8400E-01  2.5318E-03  3.6232E-02  3.8764E-02
  6.8500E-01  2.4549E-03  3.6117E-02  3.8572E-02
  6.8600E-01  2.3790E-03  3.6003E-02  3.8382E-02
  6.8700E-01  2.3043E-03  3.5887E-02  3.8191E-02
  6.8800E-01  2.2306E-03  3.5771E-02  3.8002E-02
  6.8900E-01  2.1581E-03  3.5655E-02  3.7813E-02
  6.9000E-01  2.0866E-03  3.5538E-02  3.7625E-02
  6.9100E-01  1.9424E-03  3.4476E-02  3.6418E-02
  6.9200E-01  1.8293E-03  3.4990E-02  3.6819E-02
  6.9300E-01  1.6824E-03  3.4300E-02  3.5983E-02
  6.9400E-01  1.5955E-03  3.4434E-02  3.6030E-02
  6.9500E-01  1.4689E-03  3.4999E-02  3.6468E-02
  6.9600E-01  1.3221E-03  3.4401E-02  3.5723E-02
  6.9700E-01  1.1811E-03  3.4539E-02  3.5720E-02
  6.9800E-01  1.0308E-03  3.4324E-02  3.5355E-02
  6.9900E-01  8.7225E-04  3.4480E-02  3.5352E-02
  7.0000E-01  6.9754E-04  3.4086E-02  3.4784E-02
  7.0100E-01  5.5843E-04  3.5191E-02  3.5750E-02
  7.0200E-01  4.0670E-04  3.4789E-02  3.5196E-02
  7.0300E-01  3.8042E-04  3.6395E-02  3.6776E-02
  7.0400E-01  6.2936E-04  3.9013E-02  3.9642E-02
  7.0500E-01  2.0255E-03  4.7639E-02  4.9664E-02
  7.0600E-01  1.1442E-02  1.2391E-01  1.3535E-01
  7.0700E-01  1.1353E-02  1.7894E-01  1.9029E-01
  7.0800E-01  4.7262E-02  3.6539E-01  4.1265E-01
  7.0900E-01  3.1476E-02  2.5109E-01  2.8257E-01
  7.1000E-01  1.8723E-02  1.6425E-01  1.8298E-01
  7.1100E-01  1.3752E-02  1.3552E-01  1.4927E-01
  7.1200E-01  1.1695E-02  1.1549E-01  1.2719E-01
  7.1300E-01  9.3003E-03  9.5418E-02  1.0472E-01
  7.1400E-01  7.5794E-03  8.6564E-02  9.4143E-02
  7.1500E-01  6.6526E-03  8.2214E-02  8.8866E-02
  7.1600E-01  5.6826E-03  7.5476E-02  8.1159E-02
  7.1700E-01  4.4839E-03  7.0307E-02  7.4791E-02
  7.1800E-01  3.4980E-03  7.4732E-02  7.8230E-02
  7.1900E-01  3.9699E-03  1.0404E-01  1.0801E-01
  7.2000E-01  7.4531E-03  1.2735E-01  1.3480E-01
  7.2100E-01  9.3229E-03  1.4565E-01  1.5497E-01
  7.2200E-01  1.0873E-02  1.3285E-01  1.4372E-01
  7.2300E-01  1.0173E-02  1.0764E-01  1.1782E-01
  7.2400E-01  8.5732E-03  8.9427E-02  9.8001E-02
  7.2500E-01  7.4167E-03  8.0233E-02  8.7650E-02
  7.2600E-01  6.5789E-03  7.5909E-02  8.2488E-02
  7.2700E-01  6.1339E-03  7.4504E-02  8.0638E-02
  7.2800E-01  5.8248E-03  7.3665E-02  7.9490E-02
  7.2900E-01  5.5163E-03  7.2142E-02  7.7659E-02
  7.3000E-01  5.1899E-03  7.0536E-02  7.5726E-02
  7.3100E-01  4.9256E-03  7.1182E-02  7.6107E-02
  7.3200E-01  4.6846E-03  7.1837E-02  7.6521E-02
  7.3300E-01  4.6911E-03  7.4552E-02  7.9243E-02
  7.3400E-01  4.6418E-03  7.6420E-02  8.1062E-02
  7.3500E-01  4.6675E-03  7.8258E-02  8.2926E-02
  7.3600E-01  4.7130E-03  8.0160E-02  8.4873E-02
  7.3700E-01  4.7478E-03  8.1713E-02  8.6460E-02
  7.3800E-01  4.8307E-03  8.3733E-02  8.8564E-02
  7.3900E-01  4.9044E-03  8.5219E-02  9.0123E-02
  7.4000E-01  5.0059E-03  8.7021E-02  9.2027E-02
  7.4100E-01  5.1261E-03  8.8415E-02  9.3541E-02
  7.4200E-01  5.2271E-03  8.9546E-02  9.4773E-02
  7.4300E-01  5.3758E-03  9.1114E-02  9.6490E-02
  7.4400E-01  5.4756E-03  9.2110E-02  9.7585E-02
  7.4500E-01  5.6022E-03  9.2691E-02  9.8293E-02
  7.4600E-01  5.7089E-03  9.3154E-02  9.8863E-02
  7.4700E-01  5.7870E-03  9.3496E-02  9.9283E-02
  7.4800E-01  5.8788E-03  9.3407E-02  9.9286E-02
  7.4900E-01  5.9430E-03  9.3627E-02  9.9570E-02
  7.5000E-01  5.9833E-03  9.3228E-02  9.9211E-02
  7.5100E-01  6.0045E-03  9.2958E-02  9.8962E-02
  7.5200E-01  6.0260E-03  9.2686E-02  9.8712E-02
  7.5300E-01  6.0477E-03  9.2413E-02  9.8461E-02
  7.5400E-01  6.0697E-03  9.2139E-02  9.8209E-02
  7.5500E-01  6.0920E-03  9.1864E-02  9.7956E-02
  7.5600E-01  6.1146E-03  9.1588E-02  9.7703E-02
  7.5700E-01  6.1374E-03  9.1311E-02  9.7448E-02
  7.5800E-01  6.1605E-03  9.1033E-02  9.7193E-02
  7.5900E-01  6.1838E-03  9.0753E-02  9.6937E-02
  7.6000E-01  6.2075E-03  9.0472E-02  9.6680E-02
  7.6100E-01  6.2314E-03  9.0191E-02  9.6422E-02
  7.6200E-01  6.2381E-03  8.9932E-02  9.6170E-02
  7.6300E-01  6.2441E-03  8.9674E-02  9.5918E-02
  7.6400E-01  6.2501E-03  8.9415E-02  9.5665E-02
  7.6500E-01  6.2562E-03  8.9155E-02  9.5411E-02
  7.6600E-01  6.2624E-03  8.8893E-02  9.5156E-02
  7.6700E-01  6.2687E-03  8.8631E-02  9.4899E-02
  7.6800E-01  6.2750E-03  8.8367E-02  9.4642E-02
  7.6900E-01  6.2814E-03  8.8103E-02  9.4384E-02
  7.7000E-01  6.2879E-03  8.7837E-02  9.4125E-02
  7.7100E-01  6.2945E-03  8.7570E-02  9.3865E-02
  7.7200E-01  6.3011E-03  8.7303E-02  9.3604E-02
  7.7300E-01  6.3078E-03  8.7034E-02  9.3342E-02
  7.7400E-01  6.3097E-03  8.6781E-02  9.3091E-02
  7.7500E-01  6.3088E-03  8.6537E-02  9.2846E-02
  7.7600E-01  6.3081E-03  8.6291E-02  9.2599E-02
  7.7700E-01  6.3073E-03  8.6045E-02  9.2352E-02
  7.7800E-01  6.3065E-03  8.5798E-02  9.2104E-02
  7.7900E-01  6.3057E-03  8.5549E-02  9.1855E-02
  7.8000E-01  6.3050E-03  8.5300E-02  9.1605E-02
  7.8100E-01  6.3043E-03  8.5050E-02  9.1354E-02
  7.8200E-01  6.3036E-03  8.4798E-02  9.1102E-02
  7.8300E-01  6.3029E-03  8.4546E-02  9.0849E-02
  7.8400E-01  6.3022E-03  8.4293E-02  9.0595E-02
  7.8500E-01  6.3015E-03  8.4039E-02  9.0340E-02
  7.8600E-01  6.3000E-03  8.3788E-02  9.0088E-02
  7.8700E-01  6.2930E-03  8.3562E-02  8.9855E-02
  7.8800E-01  6.2860E-03  8.3336E-02  8.9622E-02
  7.8900E-01  6.2790E-03  8.3108E-02  8.9387E-02
  7.9000E-01  6.2720E-03  8.2880E-02  8.9152E-02
  7.9100E-01  6.2650E-03  8.2651E-02  8.8916E-02
  7.9200E-01  6.2579E-03  8.2421E-02  8.8678E-02
  7.9300E-01  6.2508E-03  8.2190E-02  8.8440E-02
  7.9400E-01  6.2437E-03  8.1958E-02  8.8201E-02
  7.9500E-01  6.2366E-03  8.1725E-02  8.7961E-02
  7.9600E-01  6.2294E-03  8.1491E-02  8.7721E-02
  7.9700E-01  6.2223E-03  8.1257E-02  8.7479E-02
  7.9800E-01  6.2151E-03  8.1021E-02  8.7236E-02
  7.9900E-01  6.2098E-03  8.0844E-02  8.7053E-02
