# GGADT v1.2.1
# =-=-=
# Total cross sections as a function of energy
# -----------------------------------
# Parameter values
# -----------------------------------
# a_eff:                               9.68065E-01 micron
# ephot_min:                           6.00000E-01kiloelectron-vo
# ephot_max:                           8.00000E-01kiloelectron-vo
# nephots:                                     200
# Material file:                                   hematite
# geometry:                                        ellipsoid
# angle_mode:                                      file
# angle_file:                                      angles
# ngrain:                                      128
# norientations:                                 1
# grain-axis-z:                        1.08296E+00 micron
# grain-axis-y:                        1.08296E+00 micron
# grain-axis-z:                        7.73545E-01 micron
# grid-width:                          2.16593E+00 micron
# axes-convention:                                 ddscat
# parameter_file_name:                             large_params_set.ini
# -----------------------------------
 # [ephot (kiloelectron-volt)] [Q_sca] [Q_abs] [Q_ext]
  6.0000E-01  1.3439E+00  1.1798E+00  2.5237E+00
  6.0100E-01  1.3443E+00  1.1793E+00  2.5236E+00
  6.0200E-01  1.3448E+00  1.1788E+00  2.5236E+00
  6.0300E-01  1.3453E+00  1.1783E+00  2.5235E+00
  6.0400E-01  1.3457E+00  1.1777E+00  2.5235E+00
  6.0500E-01  1.3462E+00  1.1772E+00  2.5234E+00
  6.0600E-01  1.3468E+00  1.1767E+00  2.5234E+00
  6.0700E-01  1.3473E+00  1.1761E+00  2.5234E+00
  6.0800E-01  1.3478E+00  1.1755E+00  2.5234E+00
  6.0900E-01  1.3484E+00  1.1750E+00  2.5234E+00
  6.1000E-01  1.3490E+00  1.1745E+00  2.5235E+00
  6.1100E-01  1.3496E+00  1.1740E+00  2.5235E+00
  6.1200E-01  1.3502E+00  1.1734E+00  2.5236E+00
  6.1300E-01  1.3508E+00  1.1729E+00  2.5237E+00
  6.1400E-01  1.3515E+00  1.1723E+00  2.5238E+00
  6.1500E-01  1.3521E+00  1.1718E+00  2.5239E+00
  6.1600E-01  1.3528E+00  1.1712E+00  2.5240E+00
  6.1700E-01  1.3535E+00  1.1706E+00  2.5242E+00
  6.1800E-01  1.3543E+00  1.1701E+00  2.5243E+00
  6.1900E-01  1.3551E+00  1.1695E+00  2.5246E+00
  6.2000E-01  1.3559E+00  1.1690E+00  2.5249E+00
  6.2100E-01  1.3567E+00  1.1684E+00  2.5251E+00
  6.2200E-01  1.3576E+00  1.1678E+00  2.5254E+00
  6.2300E-01  1.3585E+00  1.1673E+00  2.5258E+00
  6.2400E-01  1.3594E+00  1.1667E+00  2.5261E+00
  6.2500E-01  1.3604E+00  1.1661E+00  2.5265E+00
  6.2600E-01  1.3614E+00  1.1655E+00  2.5269E+00
  6.2700E-01  1.3624E+00  1.1649E+00  2.5273E+00
  6.2800E-01  1.3635E+00  1.1643E+00  2.5278E+00
  6.2900E-01  1.3647E+00  1.1637E+00  2.5284E+00
  6.3000E-01  1.3659E+00  1.1631E+00  2.5290E+00
  6.3100E-01  1.3671E+00  1.1625E+00  2.5296E+00
  6.3200E-01  1.3684E+00  1.1619E+00  2.5303E+00
  6.3300E-01  1.3697E+00  1.1613E+00  2.5311E+00
  6.3400E-01  1.3711E+00  1.1607E+00  2.5318E+00
  6.3500E-01  1.3726E+00  1.1601E+00  2.5326E+00
  6.3600E-01  1.3741E+00  1.1594E+00  2.5335E+00
  6.3700E-01  1.3756E+00  1.1588E+00  2.5344E+00
  6.3800E-01  1.3772E+00  1.1581E+00  2.5353E+00
  6.3900E-01  1.3790E+00  1.1575E+00  2.5365E+00
  6.4000E-01  1.3808E+00  1.1568E+00  2.5377E+00
  6.4100E-01  1.3828E+00  1.1562E+00  2.5390E+00
  6.4200E-01  1.3848E+00  1.1555E+00  2.5403E+00
  6.4300E-01  1.3868E+00  1.1549E+00  2.5417E+00
  6.4400E-01  1.3889E+00  1.1542E+00  2.5431E+00
  6.4500E-01  1.3911E+00  1.1535E+00  2.5447E+00
  6.4600E-01  1.3934E+00  1.1528E+00  2.5462E+00
  6.4700E-01  1.3958E+00  1.1521E+00  2.5479E+00
  6.4800E-01  1.3982E+00  1.1514E+00  2.5496E+00
  6.4900E-01  1.4010E+00  1.1507E+00  2.5517E+00
  6.5000E-01  1.4039E+00  1.1500E+00  2.5539E+00
  6.5100E-01  1.4069E+00  1.1493E+00  2.5562E+00
  6.5200E-01  1.4100E+00  1.1486E+00  2.5586E+00
  6.5300E-01  1.4132E+00  1.1479E+00  2.5611E+00
  6.5400E-01  1.4165E+00  1.1472E+00  2.5637E+00
  6.5500E-01  1.4199E+00  1.1465E+00  2.5664E+00
  6.5600E-01  1.4234E+00  1.1457E+00  2.5691E+00
  6.5700E-01  1.4270E+00  1.1450E+00  2.5720E+00
  6.5800E-01  1.4308E+00  1.1442E+00  2.5750E+00
  6.5900E-01  1.4348E+00  1.1434E+00  2.5783E+00
  6.6000E-01  1.4394E+00  1.1427E+00  2.5821E+00
  6.6100E-01  1.4441E+00  1.1420E+00  2.5862E+00
  6.6200E-01  1.4490E+00  1.1413E+00  2.5903E+00
  6.6300E-01  1.4540E+00  1.1406E+00  2.5945E+00
  6.6400E-01  1.4591E+00  1.1398E+00  2.5989E+00
  6.6500E-01  1.4643E+00  1.1390E+00  2.6034E+00
  6.6600E-01  1.4697E+00  1.1383E+00  2.6080E+00
  6.6700E-01  1.4752E+00  1.1375E+00  2.6127E+00
  6.6800E-01  1.4808E+00  1.1367E+00  2.6175E+00
  6.6900E-01  1.4865E+00  1.1359E+00  2.6225E+00
  6.7000E-01  1.4932E+00  1.1352E+00  2.6284E+00
  6.7100E-01  1.5005E+00  1.1345E+00  2.6350E+00
  6.7200E-01  1.5079E+00  1.1338E+00  2.6417E+00
  6.7300E-01  1.5154E+00  1.1331E+00  2.6485E+00
  6.7400E-01  1.5229E+00  1.1324E+00  2.6553E+00
  6.7500E-01  1.5304E+00  1.1316E+00  2.6621E+00
  6.7600E-01  1.5380E+00  1.1309E+00  2.6689E+00
  6.7700E-01  1.5456E+00  1.1302E+00  2.6757E+00
  6.7800E-01  1.5531E+00  1.1294E+00  2.6825E+00
  6.7900E-01  1.5606E+00  1.1286E+00  2.6892E+00
  6.8000E-01  1.5680E+00  1.1279E+00  2.6958E+00
  6.8100E-01  1.5771E+00  1.1272E+00  2.7043E+00
  6.8200E-01  1.5862E+00  1.1265E+00  2.7127E+00
  6.8300E-01  1.5948E+00  1.1258E+00  2.7206E+00
  6.8400E-01  1.6028E+00  1.1251E+00  2.7279E+00
  6.8500E-01  1.6101E+00  1.1244E+00  2.7345E+00
  6.8600E-01  1.6166E+00  1.1237E+00  2.7403E+00
  6.8700E-01  1.6222E+00  1.1230E+00  2.7452E+00
  6.8800E-01  1.6268E+00  1.1222E+00  2.7490E+00
  6.8900E-01  1.6303E+00  1.1215E+00  2.7519E+00
  6.9000E-01  1.6327E+00  1.1208E+00  2.7535E+00
  6.9100E-01  1.6513E+00  1.1137E+00  2.7650E+00
  6.9200E-01  1.6324E+00  1.1172E+00  2.7496E+00
  6.9300E-01  1.6310E+00  1.1125E+00  2.7435E+00
  6.9400E-01  1.6126E+00  1.1134E+00  2.7261E+00
  6.9500E-01  1.5688E+00  1.1172E+00  2.6861E+00
  6.9600E-01  1.5369E+00  1.1132E+00  2.6501E+00
  6.9700E-01  1.4731E+00  1.1141E+00  2.5872E+00
  6.9800E-01  1.3956E+00  1.1127E+00  2.5083E+00
  6.9900E-01  1.2793E+00  1.1137E+00  2.3931E+00
  7.0000E-01  1.1307E+00  1.1110E+00  2.2417E+00
  7.0100E-01  9.5195E-01  1.1185E+00  2.0705E+00
  7.0200E-01  7.5756E-01  1.1158E+00  1.8734E+00
  7.0300E-01  6.9387E-01  1.1261E+00  1.8200E+00
  7.0400E-01  9.5813E-01  1.1407E+00  2.0989E+00
  7.0500E-01  1.4302E+00  1.1753E+00  2.6055E+00
  7.0600E-01  1.2679E+00  1.2400E+00  2.5079E+00
  7.0700E-01  1.2310E+00  1.2455E+00  2.4766E+00
  7.0800E-01  1.2447E+00  1.2488E+00  2.4934E+00
  7.0900E-01  1.2494E+00  1.2478E+00  2.4971E+00
  7.1000E-01  1.2587E+00  1.2446E+00  2.5033E+00
  7.1100E-01  1.2649E+00  1.2418E+00  2.5067E+00
  7.1200E-01  1.2737E+00  1.2384E+00  2.5121E+00
  7.1300E-01  1.2862E+00  1.2324E+00  2.5186E+00
  7.1400E-01  1.2927E+00  1.2283E+00  2.5210E+00
  7.1500E-01  1.2972E+00  1.2258E+00  2.5230E+00
  7.1600E-01  1.3079E+00  1.2210E+00  2.5289E+00
  7.1700E-01  1.3237E+00  1.2163E+00  2.5399E+00
  7.1800E-01  1.2970E+00  1.2203E+00  2.5173E+00
  7.1900E-01  1.2038E+00  1.2354E+00  2.4392E+00
  7.2000E-01  1.2451E+00  1.2406E+00  2.4857E+00
  7.2100E-01  1.2427E+00  1.2430E+00  2.4857E+00
  7.2200E-01  1.2606E+00  1.2414E+00  2.5020E+00
  7.2300E-01  1.2772E+00  1.2365E+00  2.5136E+00
  7.2400E-01  1.2910E+00  1.2298E+00  2.5207E+00
  7.2500E-01  1.2996E+00  1.2245E+00  2.5241E+00
  7.2600E-01  1.3050E+00  1.2213E+00  2.5263E+00
  7.2700E-01  1.3078E+00  1.2201E+00  2.5279E+00
  7.2800E-01  1.3101E+00  1.2194E+00  2.5295E+00
  7.2900E-01  1.3139E+00  1.2180E+00  2.5319E+00
  7.3000E-01  1.3187E+00  1.2165E+00  2.5352E+00
  7.3100E-01  1.3192E+00  1.2171E+00  2.5363E+00
  7.3200E-01  1.3190E+00  1.2178E+00  2.5367E+00
  7.3300E-01  1.3124E+00  1.2202E+00  2.5326E+00
  7.3400E-01  1.3078E+00  1.2217E+00  2.5295E+00
  7.3500E-01  1.3032E+00  1.2231E+00  2.5263E+00
  7.3600E-01  1.2987E+00  1.2244E+00  2.5231E+00
  7.3700E-01  1.2951E+00  1.2255E+00  2.5206E+00
  7.3800E-01  1.2909E+00  1.2267E+00  2.5176E+00
  7.3900E-01  1.2880E+00  1.2276E+00  2.5156E+00
  7.4000E-01  1.2848E+00  1.2286E+00  2.5134E+00
  7.4100E-01  1.2829E+00  1.2293E+00  2.5122E+00
  7.4200E-01  1.2815E+00  1.2298E+00  2.5113E+00
  7.4300E-01  1.2797E+00  1.2306E+00  2.5103E+00
  7.4400E-01  1.2786E+00  1.2310E+00  2.5097E+00
  7.4500E-01  1.2786E+00  1.2313E+00  2.5099E+00
  7.4600E-01  1.2786E+00  1.2315E+00  2.5101E+00
  7.4700E-01  1.2786E+00  1.2316E+00  2.5102E+00
  7.4800E-01  1.2794E+00  1.2316E+00  2.5110E+00
  7.4900E-01  1.2795E+00  1.2317E+00  2.5111E+00
  7.5000E-01  1.2803E+00  1.2315E+00  2.5119E+00
  7.5100E-01  1.2809E+00  1.2314E+00  2.5123E+00
  7.5200E-01  1.2815E+00  1.2313E+00  2.5127E+00
  7.5300E-01  1.2820E+00  1.2312E+00  2.5131E+00
  7.5400E-01  1.2825E+00  1.2310E+00  2.5136E+00
  7.5500E-01  1.2831E+00  1.2309E+00  2.5140E+00
  7.5600E-01  1.2836E+00  1.2308E+00  2.5144E+00
  7.5700E-01  1.2841E+00  1.2307E+00  2.5148E+00
  7.5800E-01  1.2846E+00  1.2305E+00  2.5151E+00
  7.5900E-01  1.2851E+00  1.2304E+00  2.5155E+00
  7.6000E-01  1.2856E+00  1.2303E+00  2.5159E+00
  7.6100E-01  1.2861E+00  1.2301E+00  2.5162E+00
  7.6200E-01  1.2865E+00  1.2300E+00  2.5165E+00
  7.6300E-01  1.2869E+00  1.2299E+00  2.5168E+00
  7.6400E-01  1.2873E+00  1.2298E+00  2.5170E+00
  7.6500E-01  1.2876E+00  1.2296E+00  2.5173E+00
  7.6600E-01  1.2880E+00  1.2295E+00  2.5175E+00
  7.6700E-01  1.2884E+00  1.2294E+00  2.5178E+00
  7.6800E-01  1.2888E+00  1.2293E+00  2.5181E+00
  7.6900E-01  1.2892E+00  1.2291E+00  2.5183E+00
  7.7000E-01  1.2896E+00  1.2290E+00  2.5186E+00
  7.7100E-01  1.2900E+00  1.2288E+00  2.5188E+00
  7.7200E-01  1.2903E+00  1.2287E+00  2.5190E+00
  7.7300E-01  1.2907E+00  1.2286E+00  2.5193E+00
  7.7400E-01  1.2911E+00  1.2284E+00  2.5195E+00
  7.7500E-01  1.2914E+00  1.2283E+00  2.5197E+00
  7.7600E-01  1.2918E+00  1.2282E+00  2.5199E+00
  7.7700E-01  1.2921E+00  1.2280E+00  2.5201E+00
  7.7800E-01  1.2924E+00  1.2279E+00  2.5203E+00
  7.7900E-01  1.2928E+00  1.2278E+00  2.5205E+00
  7.8000E-01  1.2931E+00  1.2276E+00  2.5207E+00
  7.8100E-01  1.2934E+00  1.2275E+00  2.5209E+00
  7.8200E-01  1.2938E+00  1.2273E+00  2.5211E+00
  7.8300E-01  1.2941E+00  1.2272E+00  2.5213E+00
  7.8400E-01  1.2945E+00  1.2270E+00  2.5215E+00
  7.8500E-01  1.2948E+00  1.2269E+00  2.5217E+00
  7.8600E-01  1.2952E+00  1.2267E+00  2.5219E+00
  7.8700E-01  1.2955E+00  1.2266E+00  2.5221E+00
  7.8800E-01  1.2958E+00  1.2265E+00  2.5222E+00
  7.8900E-01  1.2961E+00  1.2263E+00  2.5224E+00
  7.9000E-01  1.2964E+00  1.2262E+00  2.5226E+00
  7.9100E-01  1.2967E+00  1.2261E+00  2.5227E+00
  7.9200E-01  1.2970E+00  1.2259E+00  2.5229E+00
  7.9300E-01  1.2973E+00  1.2258E+00  2.5231E+00
  7.9400E-01  1.2976E+00  1.2256E+00  2.5233E+00
  7.9500E-01  1.2980E+00  1.2255E+00  2.5234E+00
  7.9600E-01  1.2983E+00  1.2253E+00  2.5236E+00
  7.9700E-01  1.2986E+00  1.2252E+00  2.5238E+00
  7.9800E-01  1.2989E+00  1.2250E+00  2.5239E+00
  7.9900E-01  1.2992E+00  1.2249E+00  2.5241E+00
