# GGADT v1.2.1
# =-=-=
# Total cross sections as a function of energy
# -----------------------------------
# Parameter values
# -----------------------------------
# a_eff:                               2.65484E-01 micron
# ephot_min:                           6.00000E-01kiloelectron-vo
# ephot_max:                           8.00000E-01kiloelectron-vo
# nephots:                                     200
# Material file:                                   hematite
# geometry:                                        ellipsoid
# angle_mode:                                      random
# ngrain:                                      128
# norientations:                                 1
# grain-axis-z:                        2.65484E-01 micron
# grain-axis-y:                        2.65484E-01 micron
# grain-axis-z:                        2.65484E-01 micron
# grid-width:                          5.30968E-01 micron
# axes-convention:                                 ddscat
# parameter_file_name:                             small_params.ini
# -----------------------------------
 # [ephot (kiloelectron-volt)] [Q_sca] [Q_abs] [Q_ext]
  6.0000E-01  1.3666E+00  7.0524E-01  2.0718E+00
  6.0100E-01  1.3662E+00  7.0404E-01  2.0703E+00
  6.0200E-01  1.3659E+00  7.0283E-01  2.0687E+00
  6.0300E-01  1.3656E+00  7.0160E-01  2.0672E+00
  6.0400E-01  1.3652E+00  7.0037E-01  2.0656E+00
  6.0500E-01  1.3649E+00  6.9912E-01  2.0640E+00
  6.0600E-01  1.3645E+00  6.9786E-01  2.0624E+00
  6.0700E-01  1.3641E+00  6.9658E-01  2.0607E+00
  6.0800E-01  1.3637E+00  6.9531E-01  2.0590E+00
  6.0900E-01  1.3626E+00  6.9413E-01  2.0568E+00
  6.1000E-01  1.3616E+00  6.9294E-01  2.0546E+00
  6.1100E-01  1.3606E+00  6.9175E-01  2.0523E+00
  6.1200E-01  1.3595E+00  6.9054E-01  2.0500E+00
  6.1300E-01  1.3584E+00  6.8932E-01  2.0477E+00
  6.1400E-01  1.3573E+00  6.8808E-01  2.0454E+00
  6.1500E-01  1.3561E+00  6.8684E-01  2.0430E+00
  6.1600E-01  1.3550E+00  6.8558E-01  2.0406E+00
  6.1700E-01  1.3538E+00  6.8431E-01  2.0381E+00
  6.1800E-01  1.3525E+00  6.8306E-01  2.0355E+00
  6.1900E-01  1.3507E+00  6.8189E-01  2.0326E+00
  6.2000E-01  1.3489E+00  6.8070E-01  2.0296E+00
  6.2100E-01  1.3470E+00  6.7951E-01  2.0265E+00
  6.2200E-01  1.3451E+00  6.7830E-01  2.0235E+00
  6.2300E-01  1.3432E+00  6.7709E-01  2.0203E+00
  6.2400E-01  1.3413E+00  6.7586E-01  2.0172E+00
  6.2500E-01  1.3394E+00  6.7462E-01  2.0140E+00
  6.2600E-01  1.3374E+00  6.7337E-01  2.0107E+00
  6.2700E-01  1.3353E+00  6.7210E-01  2.0074E+00
  6.2800E-01  1.3332E+00  6.7085E-01  2.0040E+00
  6.2900E-01  1.3305E+00  6.6965E-01  2.0001E+00
  6.3000E-01  1.3278E+00  6.6844E-01  1.9962E+00
  6.3100E-01  1.3251E+00  6.6722E-01  1.9923E+00
  6.3200E-01  1.3223E+00  6.6599E-01  1.9883E+00
  6.3300E-01  1.3195E+00  6.6475E-01  1.9842E+00
  6.3400E-01  1.3166E+00  6.6349E-01  1.9801E+00
  6.3500E-01  1.3138E+00  6.6223E-01  1.9760E+00
  6.3600E-01  1.3108E+00  6.6095E-01  1.9718E+00
  6.3700E-01  1.3079E+00  6.5966E-01  1.9675E+00
  6.3800E-01  1.3048E+00  6.5837E-01  1.9632E+00
  6.3900E-01  1.3010E+00  6.5713E-01  1.9581E+00
  6.4000E-01  1.2971E+00  6.5589E-01  1.9530E+00
  6.4100E-01  1.2932E+00  6.5463E-01  1.9479E+00
  6.4200E-01  1.2893E+00  6.5336E-01  1.9427E+00
  6.4300E-01  1.2853E+00  6.5208E-01  1.9374E+00
  6.4400E-01  1.2812E+00  6.5078E-01  1.9320E+00
  6.4500E-01  1.2771E+00  6.4948E-01  1.9266E+00
  6.4600E-01  1.2730E+00  6.4817E-01  1.9212E+00
  6.4700E-01  1.2688E+00  6.4684E-01  1.9156E+00
  6.4800E-01  1.2646E+00  6.4550E-01  1.9101E+00
  6.4900E-01  1.2593E+00  6.4422E-01  1.9036E+00
  6.5000E-01  1.2538E+00  6.4296E-01  1.8968E+00
  6.5100E-01  1.2482E+00  6.4168E-01  1.8899E+00
  6.5200E-01  1.2426E+00  6.4040E-01  1.8830E+00
  6.5300E-01  1.2368E+00  6.3910E-01  1.8759E+00
  6.5400E-01  1.2311E+00  6.3779E-01  1.8689E+00
  6.5500E-01  1.2252E+00  6.3647E-01  1.8617E+00
  6.5600E-01  1.2193E+00  6.3514E-01  1.8544E+00
  6.5700E-01  1.2133E+00  6.3380E-01  1.8471E+00
  6.5800E-01  1.2073E+00  6.3244E-01  1.8397E+00
  6.5900E-01  1.2006E+00  6.3111E-01  1.8317E+00
  6.6000E-01  1.1925E+00  6.2987E-01  1.8224E+00
  6.6100E-01  1.1843E+00  6.2862E-01  1.8129E+00
  6.6200E-01  1.1760E+00  6.2735E-01  1.8033E+00
  6.6300E-01  1.1676E+00  6.2607E-01  1.7937E+00
  6.6400E-01  1.1592E+00  6.2479E-01  1.7839E+00
  6.6500E-01  1.1506E+00  6.2349E-01  1.7741E+00
  6.6600E-01  1.1420E+00  6.2218E-01  1.7642E+00
  6.6700E-01  1.1333E+00  6.2086E-01  1.7542E+00
  6.6800E-01  1.1245E+00  6.1953E-01  1.7440E+00
  6.6900E-01  1.1157E+00  6.1819E-01  1.7338E+00
  6.7000E-01  1.1044E+00  6.1697E-01  1.7213E+00
  6.7100E-01  1.0916E+00  6.1582E-01  1.7075E+00
  6.7200E-01  1.0788E+00  6.1467E-01  1.6935E+00
  6.7300E-01  1.0659E+00  6.1350E-01  1.6794E+00
  6.7400E-01  1.0529E+00  6.1232E-01  1.6652E+00
  6.7500E-01  1.0398E+00  6.1114E-01  1.6509E+00
  6.7600E-01  1.0266E+00  6.0994E-01  1.6365E+00
  6.7700E-01  1.0133E+00  6.0874E-01  1.6220E+00
  6.7800E-01  9.9988E-01  6.0753E-01  1.6074E+00
  6.7900E-01  9.8642E-01  6.0630E-01  1.5927E+00
  6.8000E-01  9.7288E-01  6.0507E-01  1.5779E+00
  6.8100E-01  9.5364E-01  6.0397E-01  1.5576E+00
  6.8200E-01  9.3299E-01  6.0290E-01  1.5359E+00
  6.8300E-01  9.1228E-01  6.0182E-01  1.5141E+00
  6.8400E-01  8.9152E-01  6.0073E-01  1.4923E+00
  6.8500E-01  8.7072E-01  5.9963E-01  1.4704E+00
  6.8600E-01  8.4988E-01  5.9853E-01  1.4484E+00
  6.8700E-01  8.2903E-01  5.9741E-01  1.4264E+00
  6.8800E-01  8.0818E-01  5.9629E-01  1.4045E+00
  6.8900E-01  7.8734E-01  5.9516E-01  1.3825E+00
  6.9000E-01  7.6652E-01  5.9402E-01  1.3605E+00
  6.9100E-01  7.3085E-01  5.8350E-01  1.3144E+00
  6.9200E-01  6.8989E-01  5.8863E-01  1.2785E+00
  6.9300E-01  6.4709E-01  5.8173E-01  1.2288E+00
  6.9400E-01  6.1671E-01  5.8308E-01  1.1998E+00
  6.9500E-01  5.6927E-01  5.8872E-01  1.1580E+00
  6.9600E-01  5.2196E-01  5.8275E-01  1.1047E+00
  6.9700E-01  4.7050E-01  5.8414E-01  1.0546E+00
  6.9800E-01  4.1643E-01  5.8197E-01  9.9840E-01
  6.9900E-01  3.5595E-01  5.8354E-01  9.3950E-01
  7.0000E-01  2.8986E-01  5.7957E-01  8.6943E-01
  7.0100E-01  2.3130E-01  5.9062E-01  8.2192E-01
  7.0200E-01  1.7125E-01  5.8664E-01  7.5789E-01
  7.0300E-01  1.5733E-01  6.0229E-01  7.5962E-01
  7.0400E-01  2.4739E-01  6.2638E-01  8.7377E-01
  7.0500E-01  6.4848E-01  6.9465E-01  1.3431E+00
  7.0600E-01  1.0790E+00  9.3103E-01  2.0100E+00
  7.0700E-01  8.5660E-01  9.6801E-01  1.8246E+00
  7.0800E-01  9.6025E-01  9.9336E-01  1.9536E+00
  7.0900E-01  9.9195E-01  9.8483E-01  1.9768E+00
  7.1000E-01  1.0598E+00  9.6153E-01  2.0213E+00
  7.1100E-01  1.0861E+00  9.4243E-01  2.0285E+00
  7.1200E-01  1.1336E+00  9.2082E-01  2.0544E+00
  7.1300E-01  1.1727E+00  8.8711E-01  2.0598E+00
  7.1400E-01  1.1379E+00  8.6643E-01  2.0043E+00
  7.1500E-01  1.0991E+00  8.5453E-01  1.9536E+00
  7.1600E-01  1.0608E+00  8.3338E-01  1.8942E+00
  7.1700E-01  9.5291E-01  8.1455E-01  1.7675E+00
  7.1800E-01  7.6490E-01  8.3082E-01  1.5957E+00
  7.1900E-01  6.6208E-01  9.0350E-01  1.5656E+00
  7.2000E-01  8.6651E-01  9.3470E-01  1.8012E+00
  7.2100E-01  8.9034E-01  9.5040E-01  1.8407E+00
  7.2200E-01  1.0140E+00  9.4004E-01  1.9540E+00
  7.2300E-01  1.1266E+00  9.0943E-01  2.0360E+00
  7.2400E-01  1.1804E+00  8.7361E-01  2.0540E+00
  7.2500E-01  1.1818E+00  8.4868E-01  2.0305E+00
  7.2600E-01  1.1500E+00  8.3485E-01  1.9848E+00
  7.2700E-01  1.1190E+00  8.3002E-01  1.9490E+00
  7.2800E-01  1.0936E+00  8.2706E-01  1.9207E+00
  7.2900E-01  1.0725E+00  8.2152E-01  1.8940E+00
  7.3000E-01  1.0473E+00  8.1544E-01  1.8627E+00
  7.3100E-01  1.0067E+00  8.1791E-01  1.8246E+00
  7.3200E-01  9.6804E-01  8.2038E-01  1.7884E+00
  7.3300E-01  9.4569E-01  8.3019E-01  1.7759E+00
  7.3400E-01  9.2365E-01  8.3656E-01  1.7602E+00
  7.3500E-01  9.1243E-01  8.4254E-01  1.7550E+00
  7.3600E-01  9.0362E-01  8.4845E-01  1.7521E+00
  7.3700E-01  8.9630E-01  8.5308E-01  1.7494E+00
  7.3800E-01  8.9172E-01  8.5883E-01  1.7506E+00
  7.3900E-01  8.8993E-01  8.6289E-01  1.7528E+00
  7.4000E-01  8.8914E-01  8.6761E-01  1.7568E+00
  7.4100E-01  8.9325E-01  8.7113E-01  1.7644E+00
  7.4200E-01  8.9674E-01  8.7389E-01  1.7706E+00
  7.4300E-01  9.0218E-01  8.7761E-01  1.7798E+00
  7.4400E-01  9.0596E-01  8.7989E-01  1.7859E+00
  7.4500E-01  9.1519E-01  8.8120E-01  1.7964E+00
  7.4600E-01  9.2290E-01  8.8223E-01  1.8051E+00
  7.4700E-01  9.2837E-01  8.8299E-01  1.8114E+00
  7.4800E-01  9.3809E-01  8.8279E-01  1.8209E+00
  7.4900E-01  9.4282E-01  8.8328E-01  1.8261E+00
  7.5000E-01  9.4953E-01  8.8240E-01  1.8319E+00
  7.5100E-01  9.5350E-01  8.8180E-01  1.8353E+00
  7.5200E-01  9.5751E-01  8.8119E-01  1.8387E+00
  7.5300E-01  9.6156E-01  8.8058E-01  1.8421E+00
  7.5400E-01  9.6564E-01  8.7996E-01  1.8456E+00
  7.5500E-01  9.6977E-01  8.7934E-01  1.8491E+00
  7.5600E-01  9.7394E-01  8.7870E-01  1.8526E+00
  7.5700E-01  9.7815E-01  8.7806E-01  1.8562E+00
  7.5800E-01  9.8240E-01  8.7742E-01  1.8598E+00
  7.5900E-01  9.8669E-01  8.7677E-01  1.8635E+00
  7.6000E-01  9.9102E-01  8.7610E-01  1.8671E+00
  7.6100E-01  9.9538E-01  8.7544E-01  1.8708E+00
  7.6200E-01  9.9796E-01  8.7482E-01  1.8728E+00
  7.6300E-01  1.0005E+00  8.7420E-01  1.8747E+00
  7.6400E-01  1.0030E+00  8.7358E-01  1.8766E+00
  7.6500E-01  1.0056E+00  8.7294E-01  1.8785E+00
  7.6600E-01  1.0082E+00  8.7231E-01  1.8805E+00
  7.6700E-01  1.0108E+00  8.7166E-01  1.8825E+00
  7.6800E-01  1.0134E+00  8.7101E-01  1.8845E+00
  7.6900E-01  1.0161E+00  8.7035E-01  1.8865E+00
  7.7000E-01  1.0188E+00  8.6968E-01  1.8885E+00
  7.7100E-01  1.0215E+00  8.6901E-01  1.8905E+00
  7.7200E-01  1.0242E+00  8.6833E-01  1.8926E+00
  7.7300E-01  1.0270E+00  8.6764E-01  1.8947E+00
  7.7400E-01  1.0292E+00  8.6699E-01  1.8962E+00
  7.7500E-01  1.0311E+00  8.6636E-01  1.8974E+00
  7.7600E-01  1.0330E+00  8.6572E-01  1.8987E+00
  7.7700E-01  1.0349E+00  8.6508E-01  1.9000E+00
  7.7800E-01  1.0368E+00  8.6443E-01  1.9012E+00
  7.7900E-01  1.0387E+00  8.6377E-01  1.9025E+00
  7.8000E-01  1.0407E+00  8.6310E-01  1.9038E+00
  7.8100E-01  1.0427E+00  8.6243E-01  1.9051E+00
  7.8200E-01  1.0447E+00  8.6175E-01  1.9064E+00
  7.8300E-01  1.0467E+00  8.6107E-01  1.9077E+00
  7.8400E-01  1.0487E+00  8.6038E-01  1.9091E+00
  7.8500E-01  1.0507E+00  8.5968E-01  1.9104E+00
  7.8600E-01  1.0527E+00  8.5898E-01  1.9117E+00
  7.8700E-01  1.0539E+00  8.5836E-01  1.9123E+00
  7.8800E-01  1.0551E+00  8.5772E-01  1.9129E+00
  7.8900E-01  1.0564E+00  8.5708E-01  1.9135E+00
  7.9000E-01  1.0576E+00  8.5644E-01  1.9141E+00
  7.9100E-01  1.0589E+00  8.5578E-01  1.9147E+00
  7.9200E-01  1.0601E+00  8.5512E-01  1.9153E+00
  7.9300E-01  1.0614E+00  8.5446E-01  1.9159E+00
  7.9400E-01  1.0627E+00  8.5379E-01  1.9165E+00
  7.9500E-01  1.0640E+00  8.5311E-01  1.9171E+00
  7.9600E-01  1.0653E+00  8.5243E-01  1.9177E+00
  7.9700E-01  1.0666E+00  8.5174E-01  1.9183E+00
  7.9800E-01  1.0679E+00  8.5104E-01  1.9190E+00
  7.9900E-01  1.0689E+00  8.5051E-01  1.9195E+00
