# GGADT v1.2.1
# =-=-=
# Total cross sections as a function of energy
# -----------------------------------
# Parameter values
# -----------------------------------
# a_eff:                               3.29355E-01 micron
# ephot_min:                           6.00000E-01kiloelectron-vo
# ephot_max:                           8.00000E-01kiloelectron-vo
# nephots:                                     200
# Material file:                                   hematite
# geometry:                                        ellipsoid
# angle_mode:                                      random
# ngrain:                                      128
# norientations:                                 1
# grain-axis-z:                        3.68446E-01 micron
# grain-axis-y:                        3.68446E-01 micron
# grain-axis-z:                        2.63175E-01 micron
# grid-width:                          7.36891E-01 micron
# axes-convention:                                 ddscat
# parameter_file_name:                             large_params_random.ini
# -----------------------------------
 # [ephot (kiloelectron-volt)] [Q_sca] [Q_abs] [Q_ext]
  6.0000E-01  1.3714E+00  7.2607E-01  2.0975E+00
  6.0100E-01  1.3728E+00  7.2514E-01  2.0979E+00
  6.0200E-01  1.3741E+00  7.2420E-01  2.0983E+00
  6.0300E-01  1.3755E+00  7.2325E-01  2.0988E+00
  6.0400E-01  1.3769E+00  7.2229E-01  2.0992E+00
  6.0500E-01  1.3783E+00  7.2132E-01  2.0996E+00
  6.0600E-01  1.3796E+00  7.2034E-01  2.1000E+00
  6.0700E-01  1.3810E+00  7.1934E-01  2.1004E+00
  6.0800E-01  1.3824E+00  7.1834E-01  2.1007E+00
  6.0900E-01  1.3833E+00  7.1742E-01  2.1007E+00
  6.1000E-01  1.3843E+00  7.1649E-01  2.1008E+00
  6.1100E-01  1.3852E+00  7.1555E-01  2.1008E+00
  6.1200E-01  1.3861E+00  7.1460E-01  2.1008E+00
  6.1300E-01  1.3871E+00  7.1364E-01  2.1007E+00
  6.1400E-01  1.3880E+00  7.1267E-01  2.1007E+00
  6.1500E-01  1.3889E+00  7.1169E-01  2.1006E+00
  6.1600E-01  1.3898E+00  7.1070E-01  2.1005E+00
  6.1700E-01  1.3907E+00  7.0969E-01  2.1004E+00
  6.1800E-01  1.3915E+00  7.0870E-01  2.1002E+00
  6.1900E-01  1.3920E+00  7.0777E-01  2.0998E+00
  6.2000E-01  1.3924E+00  7.0683E-01  2.0993E+00
  6.2100E-01  1.3929E+00  7.0588E-01  2.0987E+00
  6.2200E-01  1.3933E+00  7.0492E-01  2.0982E+00
  6.2300E-01  1.3937E+00  7.0394E-01  2.0976E+00
  6.2400E-01  1.3940E+00  7.0296E-01  2.0970E+00
  6.2500E-01  1.3944E+00  7.0197E-01  2.0964E+00
  6.2600E-01  1.3947E+00  7.0097E-01  2.0957E+00
  6.2700E-01  1.3951E+00  6.9996E-01  2.0950E+00
  6.2800E-01  1.3952E+00  6.9895E-01  2.0942E+00
  6.2900E-01  1.3951E+00  6.9798E-01  2.0931E+00
  6.3000E-01  1.3949E+00  6.9701E-01  2.0919E+00
  6.3100E-01  1.3947E+00  6.9603E-01  2.0908E+00
  6.3200E-01  1.3945E+00  6.9503E-01  2.0895E+00
  6.3300E-01  1.3942E+00  6.9403E-01  2.0883E+00
  6.3400E-01  1.3939E+00  6.9301E-01  2.0869E+00
  6.3500E-01  1.3936E+00  6.9199E-01  2.0856E+00
  6.3600E-01  1.3932E+00  6.9095E-01  2.0842E+00
  6.3700E-01  1.3928E+00  6.8990E-01  2.0827E+00
  6.3800E-01  1.3924E+00  6.8885E-01  2.0812E+00
  6.3900E-01  1.3913E+00  6.8784E-01  2.0792E+00
  6.4000E-01  1.3903E+00  6.8682E-01  2.0771E+00
  6.4100E-01  1.3892E+00  6.8579E-01  2.0750E+00
  6.4200E-01  1.3880E+00  6.8475E-01  2.0728E+00
  6.4300E-01  1.3868E+00  6.8370E-01  2.0705E+00
  6.4400E-01  1.3855E+00  6.8264E-01  2.0682E+00
  6.4500E-01  1.3842E+00  6.8157E-01  2.0658E+00
  6.4600E-01  1.3828E+00  6.8049E-01  2.0633E+00
  6.4700E-01  1.3814E+00  6.7940E-01  2.0608E+00
  6.4800E-01  1.3799E+00  6.7829E-01  2.0582E+00
  6.4900E-01  1.3777E+00  6.7724E-01  2.0549E+00
  6.5000E-01  1.3752E+00  6.7619E-01  2.0514E+00
  6.5100E-01  1.3726E+00  6.7513E-01  2.0477E+00
  6.5200E-01  1.3699E+00  6.7407E-01  2.0440E+00
  6.5300E-01  1.3672E+00  6.7299E-01  2.0402E+00
  6.5400E-01  1.3643E+00  6.7190E-01  2.0362E+00
  6.5500E-01  1.3614E+00  6.7080E-01  2.0322E+00
  6.5600E-01  1.3584E+00  6.6969E-01  2.0281E+00
  6.5700E-01  1.3553E+00  6.6857E-01  2.0239E+00
  6.5800E-01  1.3521E+00  6.6744E-01  2.0195E+00
  6.5900E-01  1.3484E+00  6.6632E-01  2.0147E+00
  6.6000E-01  1.3434E+00  6.6528E-01  2.0087E+00
  6.6100E-01  1.3383E+00  6.6423E-01  2.0026E+00
  6.6200E-01  1.3331E+00  6.6316E-01  1.9963E+00
  6.6300E-01  1.3277E+00  6.6209E-01  1.9898E+00
  6.6400E-01  1.3222E+00  6.6100E-01  1.9833E+00
  6.6500E-01  1.3166E+00  6.5991E-01  1.9765E+00
  6.6600E-01  1.3108E+00  6.5880E-01  1.9696E+00
  6.6700E-01  1.3049E+00  6.5769E-01  1.9626E+00
  6.6800E-01  1.2988E+00  6.5656E-01  1.9554E+00
  6.6900E-01  1.2926E+00  6.5542E-01  1.9480E+00
  6.7000E-01  1.2842E+00  6.5439E-01  1.9386E+00
  6.7100E-01  1.2744E+00  6.5341E-01  1.9278E+00
  6.7200E-01  1.2644E+00  6.5243E-01  1.9168E+00
  6.7300E-01  1.2541E+00  6.5143E-01  1.9056E+00
  6.7400E-01  1.2436E+00  6.5043E-01  1.8941E+00
  6.7500E-01  1.2329E+00  6.4942E-01  1.8823E+00
  6.7600E-01  1.2220E+00  6.4840E-01  1.8704E+00
  6.7700E-01  1.2108E+00  6.4737E-01  1.8582E+00
  6.7800E-01  1.1994E+00  6.4633E-01  1.8457E+00
  6.7900E-01  1.1877E+00  6.4528E-01  1.8330E+00
  6.8000E-01  1.1759E+00  6.4422E-01  1.8201E+00
  6.8100E-01  1.1584E+00  6.4328E-01  1.8017E+00
  6.8200E-01  1.1392E+00  6.4235E-01  1.7816E+00
  6.8300E-01  1.1197E+00  6.4142E-01  1.7611E+00
  6.8400E-01  1.0998E+00  6.4048E-01  1.7403E+00
  6.8500E-01  1.0796E+00  6.3953E-01  1.7191E+00
  6.8600E-01  1.0590E+00  6.3858E-01  1.6976E+00
  6.8700E-01  1.0381E+00  6.3761E-01  1.6757E+00
  6.8800E-01  1.0169E+00  6.3664E-01  1.6536E+00
  6.8900E-01  9.9544E-01  6.3566E-01  1.6311E+00
  6.9000E-01  9.7371E-01  6.3467E-01  1.6084E+00
  6.9100E-01  9.3944E-01  6.2549E-01  1.5649E+00
  6.9200E-01  8.9176E-01  6.2998E-01  1.5217E+00
  6.9300E-01  8.4572E-01  6.2394E-01  1.4697E+00
  6.9400E-01  8.1007E-01  6.2513E-01  1.4352E+00
  6.9500E-01  7.5241E-01  6.3006E-01  1.3825E+00
  6.9600E-01  6.9738E-01  6.2483E-01  1.3222E+00
  6.9700E-01  6.3386E-01  6.2605E-01  1.2599E+00
  6.9800E-01  5.6663E-01  6.2415E-01  1.1908E+00
  6.9900E-01  4.8885E-01  6.2553E-01  1.1144E+00
  7.0000E-01  4.0289E-01  6.2204E-01  1.0249E+00
  7.0100E-01  3.2311E-01  6.3172E-01  9.5483E-01
  7.0200E-01  2.4177E-01  6.2824E-01  8.7000E-01
  7.0300E-01  2.2134E-01  6.4183E-01  8.6317E-01
  7.0400E-01  3.4019E-01  6.6235E-01  1.0025E+00
  7.0500E-01  8.0443E-01  7.1783E-01  1.5223E+00
  7.0600E-01  9.7702E-01  8.7428E-01  1.8513E+00
  7.0700E-01  8.4012E-01  8.9306E-01  1.7332E+00
  7.0800E-01  8.8941E-01  9.0529E-01  1.7947E+00
  7.0900E-01  9.0487E-01  9.0122E-01  1.8061E+00
  7.1000E-01  9.3887E-01  8.8986E-01  1.8287E+00
  7.1100E-01  9.6563E-01  8.8022E-01  1.8459E+00
  7.1200E-01  1.0045E+00  8.6882E-01  1.8734E+00
  7.1300E-01  1.0610E+00  8.4994E-01  1.9109E+00
  7.1400E-01  1.0754E+00  8.3768E-01  1.9131E+00
  7.1500E-01  1.0710E+00  8.3040E-01  1.9014E+00
  7.1600E-01  1.0713E+00  8.1705E-01  1.8884E+00
  7.1700E-01  1.0157E+00  8.0475E-01  1.8204E+00
  7.1800E-01  8.5378E-01  8.1540E-01  1.6692E+00
  7.1900E-01  7.2621E-01  8.5929E-01  1.5855E+00
  7.2000E-01  8.6652E-01  8.7620E-01  1.7427E+00
  7.2100E-01  8.7091E-01  8.8429E-01  1.7552E+00
  7.2200E-01  9.4327E-01  8.7899E-01  1.8223E+00
  7.2300E-01  1.0181E+00  8.6260E-01  1.8807E+00
  7.2400E-01  1.0817E+00  8.4199E-01  1.9237E+00
  7.2500E-01  1.1145E+00  8.2675E-01  1.9413E+00
  7.2600E-01  1.1173E+00  8.1799E-01  1.9353E+00
  7.2700E-01  1.1071E+00  8.1489E-01  1.9220E+00
  7.2800E-01  1.0963E+00  8.1297E-01  1.9093E+00
  7.2900E-01  1.0895E+00  8.0935E-01  1.8988E+00
  7.3000E-01  1.0796E+00  8.0534E-01  1.8849E+00
  7.3100E-01  1.0509E+00  8.0698E-01  1.8578E+00
  7.3200E-01  1.0221E+00  8.0860E-01  1.8307E+00
  7.3300E-01  9.9850E-01  8.1500E-01  1.8135E+00
  7.3400E-01  9.7773E-01  8.1909E-01  1.7968E+00
  7.3500E-01  9.6510E-01  8.2290E-01  1.7880E+00
  7.3600E-01  9.5432E-01  8.2661E-01  1.7809E+00
  7.3700E-01  9.4560E-01  8.2949E-01  1.7751E+00
  7.3800E-01  9.3810E-01  8.3305E-01  1.7711E+00
  7.3900E-01  9.3387E-01  8.3553E-01  1.7694E+00
  7.4000E-01  9.2989E-01  8.3839E-01  1.7683E+00
  7.4100E-01  9.3029E-01  8.4051E-01  1.7708E+00
  7.4200E-01  9.3074E-01  8.4216E-01  1.7729E+00
  7.4300E-01  9.3180E-01  8.4437E-01  1.7762E+00
  7.4400E-01  9.3270E-01  8.4572E-01  1.7784E+00
  7.4500E-01  9.3800E-01  8.4649E-01  1.7845E+00
  7.4600E-01  9.4238E-01  8.4709E-01  1.7895E+00
  7.4700E-01  9.4542E-01  8.4754E-01  1.7930E+00
  7.4800E-01  9.5194E-01  8.4742E-01  1.7994E+00
  7.4900E-01  9.5460E-01  8.4770E-01  1.8023E+00
  7.5000E-01  9.5961E-01  8.4719E-01  1.8068E+00
  7.5100E-01  9.6263E-01  8.4684E-01  1.8095E+00
  7.5200E-01  9.6566E-01  8.4648E-01  1.8121E+00
  7.5300E-01  9.6872E-01  8.4612E-01  1.8148E+00
  7.5400E-01  9.7179E-01  8.4576E-01  1.8175E+00
  7.5500E-01  9.7488E-01  8.4539E-01  1.8203E+00
  7.5600E-01  9.7799E-01  8.4502E-01  1.8230E+00
  7.5700E-01  9.8112E-01  8.4464E-01  1.8258E+00
  7.5800E-01  9.8427E-01  8.4426E-01  1.8285E+00
  7.5900E-01  9.8743E-01  8.4387E-01  1.8313E+00
  7.6000E-01  9.9062E-01  8.4348E-01  1.8341E+00
  7.6100E-01  9.9382E-01  8.4308E-01  1.8369E+00
  7.6200E-01  9.9590E-01  8.4271E-01  1.8386E+00
  7.6300E-01  9.9795E-01  8.4235E-01  1.8403E+00
  7.6400E-01  1.0000E+00  8.4197E-01  1.8420E+00
  7.6500E-01  1.0021E+00  8.4160E-01  1.8437E+00
  7.6600E-01  1.0042E+00  8.4121E-01  1.8454E+00
  7.6700E-01  1.0063E+00  8.4083E-01  1.8471E+00
  7.6800E-01  1.0084E+00  8.4044E-01  1.8489E+00
  7.6900E-01  1.0106E+00  8.4004E-01  1.8506E+00
  7.7000E-01  1.0128E+00  8.3964E-01  1.8524E+00
  7.7100E-01  1.0149E+00  8.3924E-01  1.8542E+00
  7.7200E-01  1.0171E+00  8.3883E-01  1.8560E+00
  7.7300E-01  1.0194E+00  8.3841E-01  1.8578E+00
  7.7400E-01  1.0212E+00  8.3802E-01  1.8592E+00
  7.7500E-01  1.0229E+00  8.3764E-01  1.8605E+00
  7.7600E-01  1.0246E+00  8.3725E-01  1.8618E+00
  7.7700E-01  1.0262E+00  8.3686E-01  1.8631E+00
  7.7800E-01  1.0280E+00  8.3646E-01  1.8644E+00
  7.7900E-01  1.0297E+00  8.3606E-01  1.8657E+00
  7.8000E-01  1.0314E+00  8.3566E-01  1.8671E+00
  7.8100E-01  1.0332E+00  8.3525E-01  1.8684E+00
  7.8200E-01  1.0349E+00  8.3484E-01  1.8698E+00
  7.8300E-01  1.0367E+00  8.3442E-01  1.8711E+00
  7.8400E-01  1.0385E+00  8.3399E-01  1.8725E+00
  7.8500E-01  1.0403E+00  8.3357E-01  1.8739E+00
  7.8600E-01  1.0421E+00  8.3314E-01  1.8752E+00
  7.8700E-01  1.0434E+00  8.3276E-01  1.8761E+00
  7.8800E-01  1.0447E+00  8.3237E-01  1.8770E+00
  7.8900E-01  1.0460E+00  8.3197E-01  1.8779E+00
  7.9000E-01  1.0473E+00  8.3157E-01  1.8789E+00
  7.9100E-01  1.0486E+00  8.3117E-01  1.8798E+00
  7.9200E-01  1.0500E+00  8.3076E-01  1.8807E+00
  7.9300E-01  1.0513E+00  8.3035E-01  1.8817E+00
  7.9400E-01  1.0527E+00  8.2994E-01  1.8826E+00
  7.9500E-01  1.0541E+00  8.2952E-01  1.8836E+00
  7.9600E-01  1.0555E+00  8.2909E-01  1.8845E+00
  7.9700E-01  1.0569E+00  8.2866E-01  1.8855E+00
  7.9800E-01  1.0583E+00  8.2823E-01  1.8865E+00
  7.9900E-01  1.0594E+00  8.2790E-01  1.8873E+00
