# GGADT v1.2.1
# =-=-=
# Total cross sections as a function of energy
# -----------------------------------
# Parameter values
# -----------------------------------
# a_eff:                               6.16774E-01 micron
# ephot_min:                           6.00000E-01kiloelectron-vo
# ephot_max:                           8.00000E-01kiloelectron-vo
# nephots:                                     200
# Material file:                                   hematite
# geometry:                                        ellipsoid
# angle_mode:                                      random
# ngrain:                                      128
# norientations:                                 1
# grain-axis-z:                        6.89978E-01 micron
# grain-axis-y:                        6.89978E-01 micron
# grain-axis-z:                        4.92842E-01 micron
# grid-width:                          1.37996E+00 micron
# axes-convention:                                 ddscat
# parameter_file_name:                             large_params_random.ini
# -----------------------------------
 # [ephot (kiloelectron-volt)] [Q_sca] [Q_abs] [Q_ext]
  6.0000E-01  1.0286E+00  8.5148E-01  1.8800E+00
  6.0100E-01  1.0296E+00  8.5101E-01  1.8806E+00
  6.0200E-01  1.0306E+00  8.5054E-01  1.8811E+00
  6.0300E-01  1.0316E+00  8.5006E-01  1.8817E+00
  6.0400E-01  1.0327E+00  8.4957E-01  1.8822E+00
  6.0500E-01  1.0338E+00  8.4907E-01  1.8828E+00
  6.0600E-01  1.0349E+00  8.4857E-01  1.8834E+00
  6.0700E-01  1.0360E+00  8.4806E-01  1.8841E+00
  6.0800E-01  1.0372E+00  8.4755E-01  1.8847E+00
  6.0900E-01  1.0384E+00  8.4707E-01  1.8855E+00
  6.1000E-01  1.0397E+00  8.4659E-01  1.8863E+00
  6.1100E-01  1.0410E+00  8.4610E-01  1.8871E+00
  6.1200E-01  1.0423E+00  8.4561E-01  1.8879E+00
  6.1300E-01  1.0436E+00  8.4510E-01  1.8887E+00
  6.1400E-01  1.0450E+00  8.4459E-01  1.8896E+00
  6.1500E-01  1.0464E+00  8.4408E-01  1.8905E+00
  6.1600E-01  1.0478E+00  8.4355E-01  1.8914E+00
  6.1700E-01  1.0493E+00  8.4302E-01  1.8923E+00
  6.1800E-01  1.0508E+00  8.4249E-01  1.8933E+00
  6.1900E-01  1.0524E+00  8.4200E-01  1.8944E+00
  6.2000E-01  1.0540E+00  8.4149E-01  1.8955E+00
  6.2100E-01  1.0557E+00  8.4098E-01  1.8967E+00
  6.2200E-01  1.0574E+00  8.4047E-01  1.8978E+00
  6.2300E-01  1.0591E+00  8.3994E-01  1.8990E+00
  6.2400E-01  1.0609E+00  8.3941E-01  1.9003E+00
  6.2500E-01  1.0627E+00  8.3887E-01  1.9015E+00
  6.2600E-01  1.0645E+00  8.3833E-01  1.9028E+00
  6.2700E-01  1.0664E+00  8.3778E-01  1.9041E+00
  6.2800E-01  1.0683E+00  8.3722E-01  1.9055E+00
  6.2900E-01  1.0704E+00  8.3669E-01  1.9070E+00
  6.3000E-01  1.0724E+00  8.3616E-01  1.9086E+00
  6.3100E-01  1.0746E+00  8.3561E-01  1.9102E+00
  6.3200E-01  1.0768E+00  8.3506E-01  1.9118E+00
  6.3300E-01  1.0790E+00  8.3450E-01  1.9135E+00
  6.3400E-01  1.0812E+00  8.3394E-01  1.9152E+00
  6.3500E-01  1.0835E+00  8.3336E-01  1.9169E+00
  6.3600E-01  1.0859E+00  8.3278E-01  1.9187E+00
  6.3700E-01  1.0883E+00  8.3219E-01  1.9205E+00
  6.3800E-01  1.0908E+00  8.3159E-01  1.9224E+00
  6.3900E-01  1.0934E+00  8.3102E-01  1.9245E+00
  6.4000E-01  1.0962E+00  8.3044E-01  1.9266E+00
  6.4100E-01  1.0989E+00  8.2986E-01  1.9288E+00
  6.4200E-01  1.1018E+00  8.2926E-01  1.9310E+00
  6.4300E-01  1.1046E+00  8.2866E-01  1.9333E+00
  6.4400E-01  1.1075E+00  8.2805E-01  1.9356E+00
  6.4500E-01  1.1105E+00  8.2743E-01  1.9380E+00
  6.4600E-01  1.1136E+00  8.2680E-01  1.9404E+00
  6.4700E-01  1.1166E+00  8.2617E-01  1.9428E+00
  6.4800E-01  1.1198E+00  8.2552E-01  1.9453E+00
  6.4900E-01  1.1232E+00  8.2491E-01  1.9481E+00
  6.5000E-01  1.1267E+00  8.2429E-01  1.9510E+00
  6.5100E-01  1.1303E+00  8.2367E-01  1.9539E+00
  6.5200E-01  1.1339E+00  8.2304E-01  1.9569E+00
  6.5300E-01  1.1376E+00  8.2240E-01  1.9600E+00
  6.5400E-01  1.1413E+00  8.2175E-01  1.9631E+00
  6.5500E-01  1.1451E+00  8.2110E-01  1.9662E+00
  6.5600E-01  1.1489E+00  8.2043E-01  1.9693E+00
  6.5700E-01  1.1528E+00  8.1976E-01  1.9725E+00
  6.5800E-01  1.1567E+00  8.1908E-01  1.9758E+00
  6.5900E-01  1.1608E+00  8.1841E-01  1.9792E+00
  6.6000E-01  1.1653E+00  8.1777E-01  1.9830E+00
  6.6100E-01  1.1698E+00  8.1713E-01  1.9869E+00
  6.6200E-01  1.1743E+00  8.1649E-01  1.9908E+00
  6.6300E-01  1.1788E+00  8.1583E-01  1.9947E+00
  6.6400E-01  1.1834E+00  8.1516E-01  1.9986E+00
  6.6500E-01  1.1880E+00  8.1449E-01  2.0025E+00
  6.6600E-01  1.1925E+00  8.1381E-01  2.0063E+00
  6.6700E-01  1.1971E+00  8.1312E-01  2.0102E+00
  6.6800E-01  1.2017E+00  8.1242E-01  2.0141E+00
  6.6900E-01  1.2062E+00  8.1171E-01  2.0179E+00
  6.7000E-01  1.2112E+00  8.1106E-01  2.0223E+00
  6.7100E-01  1.2163E+00  8.1045E-01  2.0268E+00
  6.7200E-01  1.2213E+00  8.0983E-01  2.0312E+00
  6.7300E-01  1.2262E+00  8.0920E-01  2.0354E+00
  6.7400E-01  1.2309E+00  8.0857E-01  2.0395E+00
  6.7500E-01  1.2355E+00  8.0793E-01  2.0434E+00
  6.7600E-01  1.2399E+00  8.0728E-01  2.0471E+00
  6.7700E-01  1.2440E+00  8.0662E-01  2.0506E+00
  6.7800E-01  1.2480E+00  8.0596E-01  2.0539E+00
  6.7900E-01  1.2517E+00  8.0528E-01  2.0569E+00
  6.8000E-01  1.2551E+00  8.0460E-01  2.0597E+00
  6.8100E-01  1.2585E+00  8.0399E-01  2.0625E+00
  6.8200E-01  1.2612E+00  8.0340E-01  2.0646E+00
  6.8300E-01  1.2631E+00  8.0279E-01  2.0659E+00
  6.8400E-01  1.2643E+00  8.0218E-01  2.0665E+00
  6.8500E-01  1.2646E+00  8.0157E-01  2.0662E+00
  6.8600E-01  1.2640E+00  8.0094E-01  2.0650E+00
  6.8700E-01  1.2625E+00  8.0031E-01  2.0628E+00
  6.8800E-01  1.2600E+00  7.9967E-01  2.0597E+00
  6.8900E-01  1.2565E+00  7.9903E-01  2.0555E+00
  6.9000E-01  1.2519E+00  7.9837E-01  2.0503E+00
  6.9100E-01  1.2549E+00  7.9223E-01  2.0471E+00
  6.9200E-01  1.2272E+00  7.9525E-01  2.0224E+00
  6.9300E-01  1.2118E+00  7.9118E-01  2.0030E+00
  6.9400E-01  1.1882E+00  7.9198E-01  1.9802E+00
  6.9500E-01  1.1410E+00  7.9531E-01  1.9363E+00
  6.9600E-01  1.1026E+00  7.9178E-01  1.8944E+00
  6.9700E-01  1.0415E+00  7.9261E-01  1.8341E+00
  6.9800E-01  9.7144E-01  7.9132E-01  1.7628E+00
  6.9900E-01  8.7541E-01  7.9226E-01  1.6677E+00
  7.0000E-01  7.5902E-01  7.8988E-01  1.5489E+00
  7.0100E-01  6.2939E-01  7.9641E-01  1.4258E+00
  7.0200E-01  4.9235E-01  7.9408E-01  1.2864E+00
  7.0300E-01  4.5008E-01  8.0306E-01  1.2531E+00
  7.0400E-01  6.3872E-01  8.1599E-01  1.4547E+00
  7.0500E-01  1.0605E+00  8.4728E-01  1.9078E+00
  7.0600E-01  9.3620E-01  9.0946E-01  1.8457E+00
  7.0700E-01  9.0037E-01  9.1496E-01  1.8153E+00
  7.0800E-01  9.1402E-01  9.1835E-01  1.8324E+00
  7.0900E-01  9.1864E-01  9.1726E-01  1.8359E+00
  7.1000E-01  9.2773E-01  9.1404E-01  1.8418E+00
  7.1100E-01  9.3349E-01  9.1123E-01  1.8447E+00
  7.1200E-01  9.4155E-01  9.0782E-01  1.8494E+00
  7.1300E-01  9.5295E-01  9.0191E-01  1.8549E+00
  7.1400E-01  9.6156E-01  8.9788E-01  1.8594E+00
  7.1500E-01  9.6876E-01  8.9540E-01  1.8642E+00
  7.1600E-01  9.8337E-01  8.9067E-01  1.8740E+00
  7.1700E-01  1.0003E+00  8.8610E-01  1.8864E+00
  7.1800E-01  9.6269E-01  8.9007E-01  1.8528E+00
  7.1900E-01  8.7205E-01  9.0488E-01  1.7769E+00
  7.2000E-01  9.1423E-01  9.1004E-01  1.8243E+00
  7.2100E-01  9.1187E-01  9.1242E-01  1.8243E+00
  7.2200E-01  9.2936E-01  9.1086E-01  1.8402E+00
  7.2300E-01  9.4479E-01  9.0591E-01  1.8507E+00
  7.2400E-01  9.5776E-01  8.9932E-01  1.8571E+00
  7.2500E-01  9.6813E-01  8.9413E-01  1.8623E+00
  7.2600E-01  9.7703E-01  8.9101E-01  1.8680E+00
  7.2700E-01  9.8203E-01  8.8988E-01  1.8719E+00
  7.2800E-01  9.8569E-01  8.8918E-01  1.8749E+00
  7.2900E-01  9.9091E-01  8.8784E-01  1.8787E+00
  7.3000E-01  9.9697E-01  8.8633E-01  1.8833E+00
  7.3100E-01  9.9695E-01  8.8695E-01  1.8839E+00
  7.3200E-01  9.9561E-01  8.8756E-01  1.8832E+00
  7.3300E-01  9.8743E-01  8.8992E-01  1.8774E+00
  7.3400E-01  9.8153E-01  8.9141E-01  1.8729E+00
  7.3500E-01  9.7620E-01  8.9277E-01  1.8690E+00
  7.3600E-01  9.7105E-01  8.9408E-01  1.8651E+00
  7.3700E-01  9.6697E-01  8.9508E-01  1.8621E+00
  7.3800E-01  9.6232E-01  8.9631E-01  1.8586E+00
  7.3900E-01  9.5923E-01  8.9715E-01  1.8564E+00
  7.4000E-01  9.5584E-01  8.9812E-01  1.8540E+00
  7.4100E-01  9.5387E-01  8.9882E-01  1.8527E+00
  7.4200E-01  9.5237E-01  8.9937E-01  1.8517E+00
  7.4300E-01  9.5049E-01  9.0010E-01  1.8506E+00
  7.4400E-01  9.4940E-01  9.0054E-01  1.8499E+00
  7.4500E-01  9.4945E-01  9.0079E-01  1.8502E+00
  7.4600E-01  9.4949E-01  9.0099E-01  1.8505E+00
  7.4700E-01  9.4948E-01  9.0114E-01  1.8506E+00
  7.4800E-01  9.5035E-01  9.0110E-01  1.8515E+00
  7.4900E-01  9.5040E-01  9.0119E-01  1.8516E+00
  7.5000E-01  9.5137E-01  9.0102E-01  1.8524E+00
  7.5100E-01  9.5198E-01  9.0091E-01  1.8529E+00
  7.5200E-01  9.5258E-01  9.0079E-01  1.8534E+00
  7.5300E-01  9.5317E-01  9.0068E-01  1.8538E+00
  7.5400E-01  9.5375E-01  9.0056E-01  1.8543E+00
  7.5500E-01  9.5432E-01  9.0044E-01  1.8548E+00
  7.5600E-01  9.5488E-01  9.0031E-01  1.8552E+00
  7.5700E-01  9.5543E-01  9.0019E-01  1.8556E+00
  7.5800E-01  9.5598E-01  9.0006E-01  1.8560E+00
  7.5900E-01  9.5652E-01  8.9994E-01  1.8565E+00
  7.6000E-01  9.5704E-01  8.9981E-01  1.8569E+00
  7.6100E-01  9.5756E-01  8.9968E-01  1.8572E+00
  7.6200E-01  9.5799E-01  8.9956E-01  1.8575E+00
  7.6300E-01  9.5841E-01  8.9943E-01  1.8578E+00
  7.6400E-01  9.5883E-01  8.9931E-01  1.8581E+00
  7.6500E-01  9.5925E-01  8.9919E-01  1.8584E+00
  7.6600E-01  9.5967E-01  8.9906E-01  1.8587E+00
  7.6700E-01  9.6009E-01  8.9893E-01  1.8590E+00
  7.6800E-01  9.6051E-01  8.9880E-01  1.8593E+00
  7.6900E-01  9.6093E-01  8.9867E-01  1.8596E+00
  7.7000E-01  9.6134E-01  8.9854E-01  1.8599E+00
  7.7100E-01  9.6176E-01  8.9840E-01  1.8602E+00
  7.7200E-01  9.6217E-01  8.9826E-01  1.8604E+00
  7.7300E-01  9.6258E-01  8.9812E-01  1.8607E+00
  7.7400E-01  9.6297E-01  8.9799E-01  1.8610E+00
  7.7500E-01  9.6334E-01  8.9786E-01  1.8612E+00
  7.7600E-01  9.6371E-01  8.9773E-01  1.8614E+00
  7.7700E-01  9.6408E-01  8.9760E-01  1.8617E+00
  7.7800E-01  9.6445E-01  8.9747E-01  1.8619E+00
  7.7900E-01  9.6483E-01  8.9733E-01  1.8622E+00
  7.8000E-01  9.6520E-01  8.9720E-01  1.8624E+00
  7.8100E-01  9.6558E-01  8.9706E-01  1.8626E+00
  7.8200E-01  9.6596E-01  8.9692E-01  1.8629E+00
  7.8300E-01  9.6634E-01  8.9677E-01  1.8631E+00
  7.8400E-01  9.6671E-01  8.9663E-01  1.8633E+00
  7.8500E-01  9.6710E-01  8.9648E-01  1.8636E+00
  7.8600E-01  9.6747E-01  8.9634E-01  1.8638E+00
  7.8700E-01  9.6782E-01  8.9621E-01  1.8640E+00
  7.8800E-01  9.6817E-01  8.9607E-01  1.8642E+00
  7.8900E-01  9.6852E-01  8.9594E-01  1.8645E+00
  7.9000E-01  9.6888E-01  8.9580E-01  1.8647E+00
  7.9100E-01  9.6924E-01  8.9566E-01  1.8649E+00
  7.9200E-01  9.6960E-01  8.9552E-01  1.8651E+00
  7.9300E-01  9.6996E-01  8.9538E-01  1.8653E+00
  7.9400E-01  9.7033E-01  8.9524E-01  1.8656E+00
  7.9500E-01  9.7070E-01  8.9509E-01  1.8658E+00
  7.9600E-01  9.7107E-01  8.9494E-01  1.8660E+00
  7.9700E-01  9.7145E-01  8.9480E-01  1.8662E+00
  7.9800E-01  9.7182E-01  8.9464E-01  1.8665E+00
  7.9900E-01  9.7211E-01  8.9453E-01  1.8666E+00
