# GGADT v1.2.1
# =-=-=
# Total cross sections as a function of energy
# -----------------------------------
# Parameter values
# -----------------------------------
# a_eff:                               1.37742E-01 micron
# ephot_min:                           6.00000E-01kiloelectron-vo
# ephot_max:                           8.00000E-01kiloelectron-vo
# nephots:                                     200
# Material file:                                   hematite
# geometry:                                        ellipsoid
# angle_mode:                                      file
# angle_file:                                      angles
# ngrain:                                      128
# norientations:                                 1
# grain-axis-z:                        1.37742E-01 micron
# grain-axis-y:                        1.37742E-01 micron
# grain-axis-z:                        1.37742E-01 micron
# grid-width:                          2.75484E-01 micron
# axes-convention:                                 ddscat
# parameter_file_name:                             small_params_set.ini
# -----------------------------------
 # [ephot (kiloelectron-volt)] [Q_sca] [Q_abs] [Q_ext]
  6.0000E-01  6.7481E-01  4.8577E-01  1.1606E+00
  6.0100E-01  6.7345E-01  4.8456E-01  1.1580E+00
  6.0200E-01  6.7207E-01  4.8334E-01  1.1554E+00
  6.0300E-01  6.7068E-01  4.8212E-01  1.1528E+00
  6.0400E-01  6.6928E-01  4.8088E-01  1.1502E+00
  6.0500E-01  6.6787E-01  4.7963E-01  1.1475E+00
  6.0600E-01  6.6645E-01  4.7838E-01  1.1448E+00
  6.0700E-01  6.6502E-01  4.7711E-01  1.1421E+00
  6.0800E-01  6.6355E-01  4.7585E-01  1.1394E+00
  6.0900E-01  6.6177E-01  4.7468E-01  1.1365E+00
  6.1000E-01  6.5997E-01  4.7351E-01  1.1335E+00
  6.1100E-01  6.5816E-01  4.7233E-01  1.1305E+00
  6.1200E-01  6.5634E-01  4.7114E-01  1.1275E+00
  6.1300E-01  6.5451E-01  4.6994E-01  1.1245E+00
  6.1400E-01  6.5266E-01  4.6874E-01  1.1214E+00
  6.1500E-01  6.5080E-01  4.6752E-01  1.1183E+00
  6.1600E-01  6.4893E-01  4.6630E-01  1.1152E+00
  6.1700E-01  6.4705E-01  4.6506E-01  1.1121E+00
  6.1800E-01  6.4508E-01  4.6385E-01  1.1089E+00
  6.1900E-01  6.4287E-01  4.6271E-01  1.1056E+00
  6.2000E-01  6.4065E-01  4.6157E-01  1.1022E+00
  6.2100E-01  6.3841E-01  4.6042E-01  1.0988E+00
  6.2200E-01  6.3616E-01  4.5925E-01  1.0954E+00
  6.2300E-01  6.3390E-01  4.5809E-01  1.0920E+00
  6.2400E-01  6.3162E-01  4.5691E-01  1.0885E+00
  6.2500E-01  6.2933E-01  4.5572E-01  1.0851E+00
  6.2600E-01  6.2703E-01  4.5453E-01  1.0816E+00
  6.2700E-01  6.2471E-01  4.5333E-01  1.0780E+00
  6.2800E-01  6.2231E-01  4.5213E-01  1.0744E+00
  6.2900E-01  6.1964E-01  4.5100E-01  1.0706E+00
  6.3000E-01  6.1696E-01  4.4985E-01  1.0668E+00
  6.3100E-01  6.1427E-01  4.4870E-01  1.0630E+00
  6.3200E-01  6.1156E-01  4.4754E-01  1.0591E+00
  6.3300E-01  6.0884E-01  4.4637E-01  1.0552E+00
  6.3400E-01  6.0611E-01  4.4519E-01  1.0513E+00
  6.3500E-01  6.0336E-01  4.4401E-01  1.0474E+00
  6.3600E-01  6.0060E-01  4.4281E-01  1.0434E+00
  6.3700E-01  5.9782E-01  4.4161E-01  1.0394E+00
  6.3800E-01  5.9499E-01  4.4040E-01  1.0354E+00
  6.3900E-01  5.9175E-01  4.3926E-01  1.0310E+00
  6.4000E-01  5.8850E-01  4.3810E-01  1.0266E+00
  6.4100E-01  5.8523E-01  4.3693E-01  1.0222E+00
  6.4200E-01  5.8195E-01  4.3576E-01  1.0177E+00
  6.4300E-01  5.7866E-01  4.3458E-01  1.0132E+00
  6.4400E-01  5.7535E-01  4.3339E-01  1.0087E+00
  6.4500E-01  5.7203E-01  4.3219E-01  1.0042E+00
  6.4600E-01  5.6869E-01  4.3099E-01  9.9968E-01
  6.4700E-01  5.6535E-01  4.2977E-01  9.9512E-01
  6.4800E-01  5.6199E-01  4.2855E-01  9.9053E-01
  6.4900E-01  5.5811E-01  4.2739E-01  9.8550E-01
  6.5000E-01  5.5408E-01  4.2624E-01  9.8032E-01
  6.5100E-01  5.5003E-01  4.2508E-01  9.7511E-01
  6.5200E-01  5.4598E-01  4.2392E-01  9.6989E-01
  6.5300E-01  5.4191E-01  4.2274E-01  9.6465E-01
  6.5400E-01  5.3782E-01  4.2156E-01  9.5939E-01
  6.5500E-01  5.3373E-01  4.2037E-01  9.5411E-01
  6.5600E-01  5.2963E-01  4.1918E-01  9.4880E-01
  6.5700E-01  5.2551E-01  4.1797E-01  9.4349E-01
  6.5800E-01  5.2139E-01  4.1676E-01  9.3815E-01
  6.5900E-01  5.1695E-01  4.1557E-01  9.3252E-01
  6.6000E-01  5.1177E-01  4.1446E-01  9.2624E-01
  6.6100E-01  5.0659E-01  4.1335E-01  9.1994E-01
  6.6200E-01  5.0140E-01  4.1222E-01  9.1362E-01
  6.6300E-01  4.9620E-01  4.1109E-01  9.0729E-01
  6.6400E-01  4.9100E-01  4.0995E-01  9.0095E-01
  6.6500E-01  4.8579E-01  4.0881E-01  8.9460E-01
  6.6600E-01  4.8058E-01  4.0765E-01  8.8823E-01
  6.6700E-01  4.7536E-01  4.0649E-01  8.8185E-01
  6.6800E-01  4.7014E-01  4.0532E-01  8.7546E-01
  6.6900E-01  4.6492E-01  4.0415E-01  8.6906E-01
  6.7000E-01  4.5852E-01  4.0308E-01  8.6160E-01
  6.7100E-01  4.5146E-01  4.0208E-01  8.5354E-01
  6.7200E-01  4.4442E-01  4.0107E-01  8.4549E-01
  6.7300E-01  4.3739E-01  4.0005E-01  8.3744E-01
  6.7400E-01  4.3038E-01  3.9903E-01  8.2941E-01
  6.7500E-01  4.2338E-01  3.9800E-01  8.2138E-01
  6.7600E-01  4.1639E-01  3.9697E-01  8.1336E-01
  6.7700E-01  4.0943E-01  3.9593E-01  8.0536E-01
  6.7800E-01  4.0248E-01  3.9488E-01  7.9737E-01
  6.7900E-01  3.9556E-01  3.9383E-01  7.8939E-01
  6.8000E-01  3.8866E-01  3.9277E-01  7.8142E-01
  6.8100E-01  3.7915E-01  3.9182E-01  7.7097E-01
  6.8200E-01  3.6909E-01  3.9090E-01  7.6000E-01
  6.8300E-01  3.5912E-01  3.8998E-01  7.4910E-01
  6.8400E-01  3.4924E-01  3.8904E-01  7.3829E-01
  6.8500E-01  3.3945E-01  3.8811E-01  7.2756E-01
  6.8600E-01  3.2975E-01  3.8716E-01  7.1692E-01
  6.8700E-01  3.2015E-01  3.8622E-01  7.0636E-01
  6.8800E-01  3.1064E-01  3.8526E-01  6.9591E-01
  6.8900E-01  3.0124E-01  3.8430E-01  6.8555E-01
  6.9000E-01  2.9195E-01  3.8334E-01  6.7529E-01
  6.9100E-01  2.7462E-01  3.7449E-01  6.4911E-01
  6.9200E-01  2.5832E-01  3.7878E-01  6.3711E-01
  6.9300E-01  2.3946E-01  3.7301E-01  6.1247E-01
  6.9400E-01  2.2729E-01  3.7414E-01  6.0143E-01
  6.9500E-01  2.0898E-01  3.7887E-01  5.8785E-01
  6.9600E-01  1.8947E-01  3.7386E-01  5.6333E-01
  6.9700E-01  1.6960E-01  3.7502E-01  5.4461E-01
  6.9800E-01  1.4870E-01  3.7321E-01  5.2191E-01
  6.9900E-01  1.2611E-01  3.7452E-01  5.0063E-01
  7.0000E-01  1.0150E-01  3.7121E-01  4.7271E-01
  7.0100E-01  8.0865E-02  3.8046E-01  4.6133E-01
  7.0200E-01  5.9248E-02  3.7711E-01  4.3636E-01
  7.0300E-01  5.4829E-02  3.9038E-01  4.4521E-01
  7.0400E-01  8.8606E-02  4.1136E-01  4.9997E-01
  7.0500E-01  2.6107E-01  4.7519E-01  7.3626E-01
  7.0600E-01  7.7149E-01  7.9943E-01  1.5709E+00
  7.0700E-01  5.9271E-01  8.9199E-01  1.4847E+00
  7.0800E-01  8.6007E-01  9.7816E-01  1.8382E+00
  7.0900E-01  9.0677E-01  9.4655E-01  1.8533E+00
  7.1000E-01  9.0735E-01  8.7347E-01  1.7808E+00
  7.1100E-01  8.3591E-01  8.2499E-01  1.6609E+00
  7.1200E-01  8.1992E-01  7.7818E-01  1.5981E+00
  7.1300E-01  7.6459E-01  7.1629E-01  1.4809E+00
  7.1400E-01  6.7970E-01  6.8298E-01  1.3627E+00
  7.1500E-01  6.2412E-01  6.6503E-01  1.2892E+00
  7.1600E-01  5.6677E-01  6.3496E-01  1.2017E+00
  7.1700E-01  4.7347E-01  6.0987E-01  1.0833E+00
  7.1800E-01  3.6664E-01  6.3146E-01  9.9810E-01
  7.1900E-01  3.4609E-01  7.4501E-01  1.0911E+00
  7.2000E-01  5.3415E-01  8.0742E-01  1.3416E+00
  7.2100E-01  5.8789E-01  8.4424E-01  1.4321E+00
  7.2200E-01  7.0851E-01  8.1946E-01  1.5280E+00
  7.2300E-01  7.6716E-01  7.5601E-01  1.5232E+00
  7.2400E-01  7.4069E-01  6.9421E-01  1.4349E+00
  7.2500E-01  6.9322E-01  6.5649E-01  1.3497E+00
  7.2600E-01  6.4241E-01  6.3698E-01  1.2794E+00
  7.2700E-01  6.0977E-01  6.3038E-01  1.2401E+00
  7.2800E-01  5.8579E-01  6.2638E-01  1.2122E+00
  7.2900E-01  5.6366E-01  6.1899E-01  1.1826E+00
  7.3000E-01  5.3930E-01  6.1102E-01  1.1503E+00
  7.3100E-01  5.1256E-01  6.1424E-01  1.1268E+00
  7.3200E-01  4.8790E-01  6.1749E-01  1.1054E+00
  7.3300E-01  4.8029E-01  6.3061E-01  1.1109E+00
  7.3400E-01  4.7025E-01  6.3935E-01  1.1096E+00
  7.3500E-01  4.6727E-01  6.4773E-01  1.1150E+00
  7.3600E-01  4.6591E-01  6.5617E-01  1.1221E+00
  7.3700E-01  4.6460E-01  6.6289E-01  1.1275E+00
  7.3800E-01  4.6616E-01  6.7143E-01  1.1376E+00
  7.3900E-01  4.6834E-01  6.7755E-01  1.1459E+00
  7.4000E-01  4.7192E-01  6.8481E-01  1.1567E+00
  7.4100E-01  4.7808E-01  6.9029E-01  1.1684E+00
  7.4200E-01  4.8323E-01  6.9467E-01  1.1779E+00
  7.4300E-01  4.9090E-01  7.0062E-01  1.1915E+00
  7.4400E-01  4.9608E-01  7.0433E-01  1.2004E+00
  7.4500E-01  5.0452E-01  7.0647E-01  1.2110E+00
  7.4600E-01  5.1163E-01  7.0817E-01  1.2198E+00
  7.4700E-01  5.1677E-01  7.0941E-01  1.2262E+00
  7.4800E-01  5.2426E-01  7.0909E-01  1.2334E+00
  7.4900E-01  5.2862E-01  7.0989E-01  1.2385E+00
  7.5000E-01  5.3300E-01  7.0844E-01  1.2414E+00
  7.5100E-01  5.3551E-01  7.0745E-01  1.2430E+00
  7.5200E-01  5.3804E-01  7.0645E-01  1.2445E+00
  7.5300E-01  5.4061E-01  7.0545E-01  1.2461E+00
  7.5400E-01  5.4320E-01  7.0444E-01  1.2476E+00
  7.5500E-01  5.4583E-01  7.0342E-01  1.2493E+00
  7.5600E-01  5.4849E-01  7.0239E-01  1.2509E+00
  7.5700E-01  5.5118E-01  7.0136E-01  1.2525E+00
  7.5800E-01  5.5390E-01  7.0031E-01  1.2542E+00
  7.5900E-01  5.5665E-01  6.9926E-01  1.2559E+00
  7.6000E-01  5.5943E-01  6.9820E-01  1.2576E+00
  7.6100E-01  5.6224E-01  6.9713E-01  1.2594E+00
  7.6200E-01  5.6363E-01  6.9615E-01  1.2598E+00
  7.6300E-01  5.6496E-01  6.9516E-01  1.2601E+00
  7.6400E-01  5.6631E-01  6.9416E-01  1.2605E+00
  7.6500E-01  5.6766E-01  6.9316E-01  1.2608E+00
  7.6600E-01  5.6903E-01  6.9215E-01  1.2612E+00
  7.6700E-01  5.7042E-01  6.9113E-01  1.2615E+00
  7.6800E-01  5.7181E-01  6.9011E-01  1.2619E+00
  7.6900E-01  5.7322E-01  6.8907E-01  1.2623E+00
  7.7000E-01  5.7464E-01  6.8803E-01  1.2627E+00
  7.7100E-01  5.7607E-01  6.8698E-01  1.2631E+00
  7.7200E-01  5.7752E-01  6.8592E-01  1.2634E+00
  7.7300E-01  5.7898E-01  6.8486E-01  1.2638E+00
  7.7400E-01  5.8000E-01  6.8385E-01  1.2639E+00
  7.7500E-01  5.8079E-01  6.8287E-01  1.2637E+00
  7.7600E-01  5.8157E-01  6.8189E-01  1.2635E+00
  7.7700E-01  5.8237E-01  6.8090E-01  1.2633E+00
  7.7800E-01  5.8317E-01  6.7990E-01  1.2631E+00
  7.7900E-01  5.8397E-01  6.7889E-01  1.2629E+00
  7.8000E-01  5.8479E-01  6.7788E-01  1.2627E+00
  7.8100E-01  5.8560E-01  6.7686E-01  1.2625E+00
  7.8200E-01  5.8643E-01  6.7583E-01  1.2623E+00
  7.8300E-01  5.8726E-01  6.7479E-01  1.2621E+00
  7.8400E-01  5.8810E-01  6.7375E-01  1.2618E+00
  7.8500E-01  5.8895E-01  6.7270E-01  1.2616E+00
  7.8600E-01  5.8971E-01  6.7165E-01  1.2614E+00
  7.8700E-01  5.8994E-01  6.7071E-01  1.2607E+00
  7.8800E-01  5.9018E-01  6.6977E-01  1.2599E+00
  7.8900E-01  5.9042E-01  6.6881E-01  1.2592E+00
  7.9000E-01  5.9066E-01  6.6785E-01  1.2585E+00
  7.9100E-01  5.9090E-01  6.6688E-01  1.2578E+00
  7.9200E-01  5.9114E-01  6.6591E-01  1.2570E+00
  7.9300E-01  5.9138E-01  6.6493E-01  1.2563E+00
  7.9400E-01  5.9162E-01  6.6394E-01  1.2556E+00
  7.9500E-01  5.9187E-01  6.6294E-01  1.2548E+00
  7.9600E-01  5.9211E-01  6.6194E-01  1.2541E+00
  7.9700E-01  5.9236E-01  6.6093E-01  1.2533E+00
  7.9800E-01  5.9261E-01  6.5991E-01  1.2525E+00
  7.9900E-01  5.9281E-01  6.5915E-01  1.2520E+00
