# GGADT v1.2.1
# =-=-=
# Total cross sections as a function of energy
# -----------------------------------
# Parameter values
# -----------------------------------
# a_eff:                               6.16774E-01 micron
# ephot_min:                           6.00000E-01kiloelectron-vo
# ephot_max:                           8.00000E-01kiloelectron-vo
# nephots:                                     200
# Material file:                                   hematite
# geometry:                                        ellipsoid
# angle_mode:                                      file
# angle_file:                                      angles
# ngrain:                                      128
# norientations:                                 1
# grain-axis-z:                        6.89978E-01 micron
# grain-axis-y:                        6.89978E-01 micron
# grain-axis-z:                        4.92842E-01 micron
# grid-width:                          1.37996E+00 micron
# axes-convention:                                 ddscat
# parameter_file_name:                             large_params_set.ini
# -----------------------------------
 # [ephot (kiloelectron-volt)] [Q_sca] [Q_abs] [Q_ext]
  6.0000E-01  1.6971E+00  1.0924E+00  2.7895E+00
  6.0100E-01  1.7002E+00  1.0914E+00  2.7916E+00
  6.0200E-01  1.7034E+00  1.0904E+00  2.7938E+00
  6.0300E-01  1.7065E+00  1.0895E+00  2.7960E+00
  6.0400E-01  1.7098E+00  1.0885E+00  2.7982E+00
  6.0500E-01  1.7130E+00  1.0875E+00  2.8005E+00
  6.0600E-01  1.7163E+00  1.0864E+00  2.8027E+00
  6.0700E-01  1.7196E+00  1.0854E+00  2.8050E+00
  6.0800E-01  1.7230E+00  1.0843E+00  2.8073E+00
  6.0900E-01  1.7263E+00  1.0834E+00  2.8096E+00
  6.1000E-01  1.7295E+00  1.0824E+00  2.8119E+00
  6.1100E-01  1.7329E+00  1.0814E+00  2.8143E+00
  6.1200E-01  1.7362E+00  1.0804E+00  2.8166E+00
  6.1300E-01  1.7396E+00  1.0794E+00  2.8190E+00
  6.1400E-01  1.7430E+00  1.0784E+00  2.8213E+00
  6.1500E-01  1.7464E+00  1.0773E+00  2.8237E+00
  6.1600E-01  1.7499E+00  1.0763E+00  2.8262E+00
  6.1700E-01  1.7534E+00  1.0752E+00  2.8286E+00
  6.1800E-01  1.7569E+00  1.0742E+00  2.8310E+00
  6.1900E-01  1.7602E+00  1.0732E+00  2.8334E+00
  6.2000E-01  1.7636E+00  1.0722E+00  2.8358E+00
  6.2100E-01  1.7671E+00  1.0711E+00  2.8382E+00
  6.2200E-01  1.7705E+00  1.0701E+00  2.8406E+00
  6.2300E-01  1.7740E+00  1.0691E+00  2.8430E+00
  6.2400E-01  1.7775E+00  1.0680E+00  2.8455E+00
  6.2500E-01  1.7810E+00  1.0670E+00  2.8479E+00
  6.2600E-01  1.7845E+00  1.0659E+00  2.8504E+00
  6.2700E-01  1.7881E+00  1.0648E+00  2.8528E+00
  6.2800E-01  1.7916E+00  1.0637E+00  2.8553E+00
  6.2900E-01  1.7950E+00  1.0626E+00  2.8577E+00
  6.3000E-01  1.7985E+00  1.0616E+00  2.8601E+00
  6.3100E-01  1.8020E+00  1.0605E+00  2.8625E+00
  6.3200E-01  1.8055E+00  1.0594E+00  2.8649E+00
  6.3300E-01  1.8089E+00  1.0583E+00  2.8673E+00
  6.3400E-01  1.8124E+00  1.0572E+00  2.8697E+00
  6.3500E-01  1.8159E+00  1.0561E+00  2.8721E+00
  6.3600E-01  1.8194E+00  1.0550E+00  2.8744E+00
  6.3700E-01  1.8229E+00  1.0538E+00  2.8768E+00
  6.3800E-01  1.8264E+00  1.0527E+00  2.8791E+00
  6.3900E-01  1.8298E+00  1.0516E+00  2.8814E+00
  6.4000E-01  1.8332E+00  1.0505E+00  2.8836E+00
  6.4100E-01  1.8365E+00  1.0493E+00  2.8858E+00
  6.4200E-01  1.8398E+00  1.0482E+00  2.8880E+00
  6.4300E-01  1.8431E+00  1.0470E+00  2.8902E+00
  6.4400E-01  1.8464E+00  1.0458E+00  2.8923E+00
  6.4500E-01  1.8497E+00  1.0447E+00  2.8943E+00
  6.4600E-01  1.8529E+00  1.0435E+00  2.8963E+00
  6.4700E-01  1.8561E+00  1.0422E+00  2.8983E+00
  6.4800E-01  1.8593E+00  1.0410E+00  2.9003E+00
  6.4900E-01  1.8622E+00  1.0398E+00  2.9020E+00
  6.5000E-01  1.8650E+00  1.0387E+00  2.9036E+00
  6.5100E-01  1.8677E+00  1.0375E+00  2.9052E+00
  6.5200E-01  1.8703E+00  1.0363E+00  2.9066E+00
  6.5300E-01  1.8729E+00  1.0351E+00  2.9080E+00
  6.5400E-01  1.8754E+00  1.0338E+00  2.9092E+00
  6.5500E-01  1.8778E+00  1.0326E+00  2.9104E+00
  6.5600E-01  1.8801E+00  1.0314E+00  2.9115E+00
  6.5700E-01  1.8824E+00  1.0301E+00  2.9125E+00
  6.5800E-01  1.8845E+00  1.0288E+00  2.9133E+00
  6.5900E-01  1.8864E+00  1.0275E+00  2.9139E+00
  6.6000E-01  1.8876E+00  1.0264E+00  2.9139E+00
  6.6100E-01  1.8886E+00  1.0252E+00  2.9137E+00
  6.6200E-01  1.8894E+00  1.0240E+00  2.9134E+00
  6.6300E-01  1.8901E+00  1.0227E+00  2.9128E+00
  6.6400E-01  1.8905E+00  1.0215E+00  2.9120E+00
  6.6500E-01  1.8908E+00  1.0202E+00  2.9110E+00
  6.6600E-01  1.8908E+00  1.0190E+00  2.9098E+00
  6.6700E-01  1.8906E+00  1.0177E+00  2.9083E+00
  6.6800E-01  1.8902E+00  1.0164E+00  2.9066E+00
  6.6900E-01  1.8896E+00  1.0151E+00  2.9047E+00
  6.7000E-01  1.8874E+00  1.0139E+00  2.9013E+00
  6.7100E-01  1.8841E+00  1.0128E+00  2.8968E+00
  6.7200E-01  1.8803E+00  1.0116E+00  2.8919E+00
  6.7300E-01  1.8760E+00  1.0105E+00  2.8865E+00
  6.7400E-01  1.8713E+00  1.0093E+00  2.8806E+00
  6.7500E-01  1.8660E+00  1.0082E+00  2.8742E+00
  6.7600E-01  1.8603E+00  1.0070E+00  2.8673E+00
  6.7700E-01  1.8541E+00  1.0058E+00  2.8599E+00
  6.7800E-01  1.8474E+00  1.0046E+00  2.8520E+00
  6.7900E-01  1.8402E+00  1.0033E+00  2.8436E+00
  6.8000E-01  1.8325E+00  1.0021E+00  2.8346E+00
  6.8100E-01  1.8194E+00  1.0010E+00  2.8204E+00
  6.8200E-01  1.8042E+00  9.9991E-01  2.8041E+00
  6.8300E-01  1.7879E+00  9.9882E-01  2.7867E+00
  6.8400E-01  1.7704E+00  9.9772E-01  2.7681E+00
  6.8500E-01  1.7519E+00  9.9661E-01  2.7485E+00
  6.8600E-01  1.7322E+00  9.9548E-01  2.7277E+00
  6.8700E-01  1.7115E+00  9.9435E-01  2.7059E+00
  6.8800E-01  1.6897E+00  9.9320E-01  2.6829E+00
  6.8900E-01  1.6669E+00  9.9204E-01  2.6589E+00
  6.9000E-01  1.6429E+00  9.9087E-01  2.6338E+00
  6.9100E-01  1.6122E+00  9.7995E-01  2.5921E+00
  6.9200E-01  1.5472E+00  9.8530E-01  2.5325E+00
  6.9300E-01  1.4923E+00  9.7809E-01  2.4704E+00
  6.9400E-01  1.4422E+00  9.7951E-01  2.4217E+00
  6.9500E-01  1.3559E+00  9.8540E-01  2.3413E+00
  6.9600E-01  1.2782E+00  9.7916E-01  2.2573E+00
  6.9700E-01  1.1788E+00  9.8062E-01  2.1594E+00
  6.9800E-01  1.0713E+00  9.7834E-01  2.0496E+00
  6.9900E-01  9.3946E-01  9.7999E-01  1.9195E+00
  7.0000E-01  7.8960E-01  9.7580E-01  1.7654E+00
  7.0100E-01  6.4049E-01  9.8737E-01  1.6279E+00
  7.0200E-01  4.8753E-01  9.8323E-01  1.4708E+00
  7.0300E-01  4.4537E-01  9.9930E-01  1.4447E+00
  7.0400E-01  6.6233E-01  1.0230E+00  1.6854E+00
  7.0500E-01  1.3479E+00  1.0838E+00  2.4317E+00
  7.0600E-01  1.2969E+00  1.2250E+00  2.5220E+00
  7.0700E-01  1.2014E+00  1.2390E+00  2.4405E+00
  7.0800E-01  1.2365E+00  1.2478E+00  2.4843E+00
  7.0900E-01  1.2480E+00  1.2450E+00  2.4929E+00
  7.1000E-01  1.2703E+00  1.2367E+00  2.5069E+00
  7.1100E-01  1.2863E+00  1.2295E+00  2.5159E+00
  7.1200E-01  1.3103E+00  1.2209E+00  2.5312E+00
  7.1300E-01  1.3546E+00  1.2062E+00  2.5608E+00
  7.1400E-01  1.3900E+00  1.1962E+00  2.5862E+00
  7.1500E-01  1.4089E+00  1.1902E+00  2.5991E+00
  7.1600E-01  1.4404E+00  1.1789E+00  2.6193E+00
  7.1700E-01  1.4388E+00  1.1681E+00  2.6069E+00
  7.1800E-01  1.2951E+00  1.1775E+00  2.4725E+00
  7.1900E-01  1.1194E+00  1.2135E+00  2.3329E+00
  7.2000E-01  1.2339E+00  1.2265E+00  2.4604E+00
  7.2100E-01  1.2301E+00  1.2325E+00  2.4626E+00
  7.2200E-01  1.2785E+00  1.2286E+00  2.5071E+00
  7.2300E-01  1.3247E+00  1.2161E+00  2.5408E+00
  7.2400E-01  1.3755E+00  1.1998E+00  2.5753E+00
  7.2500E-01  1.4188E+00  1.1872E+00  2.6059E+00
  7.2600E-01  1.4456E+00  1.1797E+00  2.6253E+00
  7.2700E-01  1.4536E+00  1.1770E+00  2.6306E+00
  7.2800E-01  1.4566E+00  1.1753E+00  2.6319E+00
  7.2900E-01  1.4635E+00  1.1722E+00  2.6357E+00
  7.3000E-01  1.4692E+00  1.1686E+00  2.6378E+00
  7.3100E-01  1.4536E+00  1.1701E+00  2.6237E+00
  7.3200E-01  1.4356E+00  1.1715E+00  2.6071E+00
  7.3300E-01  1.4103E+00  1.1771E+00  2.5874E+00
  7.3400E-01  1.3903E+00  1.1806E+00  2.5710E+00
  7.3500E-01  1.3758E+00  1.1839E+00  2.5597E+00
  7.3600E-01  1.3626E+00  1.1870E+00  2.5496E+00
  7.3700E-01  1.3521E+00  1.1895E+00  2.5415E+00
  7.3800E-01  1.3414E+00  1.1924E+00  2.5338E+00
  7.3900E-01  1.3347E+00  1.1945E+00  2.5292E+00
  7.4000E-01  1.3277E+00  1.1968E+00  2.5245E+00
  7.4100E-01  1.3248E+00  1.1986E+00  2.5234E+00
  7.4200E-01  1.3226E+00  1.1999E+00  2.5226E+00
  7.4300E-01  1.3201E+00  1.2017E+00  2.5218E+00
  7.4400E-01  1.3187E+00  1.2028E+00  2.5215E+00
  7.4500E-01  1.3210E+00  1.2034E+00  2.5244E+00
  7.4600E-01  1.3228E+00  1.2039E+00  2.5267E+00
  7.4700E-01  1.3240E+00  1.2042E+00  2.5283E+00
  7.4800E-01  1.3281E+00  1.2042E+00  2.5323E+00
  7.4900E-01  1.3292E+00  1.2044E+00  2.5336E+00
  7.5000E-01  1.3329E+00  1.2040E+00  2.5369E+00
  7.5100E-01  1.3352E+00  1.2037E+00  2.5389E+00
  7.5200E-01  1.3374E+00  1.2034E+00  2.5408E+00
  7.5300E-01  1.3397E+00  1.2031E+00  2.5428E+00
  7.5400E-01  1.3419E+00  1.2028E+00  2.5448E+00
  7.5500E-01  1.3442E+00  1.2025E+00  2.5467E+00
  7.5600E-01  1.3464E+00  1.2022E+00  2.5486E+00
  7.5700E-01  1.3486E+00  1.2019E+00  2.5506E+00
  7.5800E-01  1.3509E+00  1.2016E+00  2.5525E+00
  7.5900E-01  1.3531E+00  1.2013E+00  2.5544E+00
  7.6000E-01  1.3553E+00  1.2010E+00  2.5563E+00
  7.6100E-01  1.3575E+00  1.2007E+00  2.5581E+00
  7.6200E-01  1.3591E+00  1.2004E+00  2.5594E+00
  7.6300E-01  1.3607E+00  1.2001E+00  2.5607E+00
  7.6400E-01  1.3623E+00  1.1998E+00  2.5620E+00
  7.6500E-01  1.3639E+00  1.1994E+00  2.5633E+00
  7.6600E-01  1.3655E+00  1.1991E+00  2.5647E+00
  7.6700E-01  1.3671E+00  1.1988E+00  2.5660E+00
  7.6800E-01  1.3688E+00  1.1985E+00  2.5673E+00
  7.6900E-01  1.3704E+00  1.1982E+00  2.5686E+00
  7.7000E-01  1.3721E+00  1.1979E+00  2.5699E+00
  7.7100E-01  1.3737E+00  1.1975E+00  2.5712E+00
  7.7200E-01  1.3754E+00  1.1972E+00  2.5726E+00
  7.7300E-01  1.3770E+00  1.1968E+00  2.5739E+00
  7.7400E-01  1.3785E+00  1.1965E+00  2.5751E+00
  7.7500E-01  1.3799E+00  1.1962E+00  2.5761E+00
  7.7600E-01  1.3813E+00  1.1959E+00  2.5772E+00
  7.7700E-01  1.3827E+00  1.1956E+00  2.5783E+00
  7.7800E-01  1.3841E+00  1.1952E+00  2.5794E+00
  7.7900E-01  1.3855E+00  1.1949E+00  2.5805E+00
  7.8000E-01  1.3870E+00  1.1946E+00  2.5816E+00
  7.8100E-01  1.3884E+00  1.1942E+00  2.5827E+00
  7.8200E-01  1.3899E+00  1.1939E+00  2.5838E+00
  7.8300E-01  1.3914E+00  1.1936E+00  2.5849E+00
  7.8400E-01  1.3928E+00  1.1932E+00  2.5860E+00
  7.8500E-01  1.3943E+00  1.1929E+00  2.5872E+00
  7.8600E-01  1.3958E+00  1.1925E+00  2.5883E+00
  7.8700E-01  1.3970E+00  1.1922E+00  2.5892E+00
  7.8800E-01  1.3983E+00  1.1919E+00  2.5901E+00
  7.8900E-01  1.3995E+00  1.1915E+00  2.5910E+00
  7.9000E-01  1.4008E+00  1.1912E+00  2.5920E+00
  7.9100E-01  1.4021E+00  1.1909E+00  2.5929E+00
  7.9200E-01  1.4033E+00  1.1905E+00  2.5939E+00
  7.9300E-01  1.4047E+00  1.1902E+00  2.5948E+00
  7.9400E-01  1.4060E+00  1.1898E+00  2.5958E+00
  7.9500E-01  1.4073E+00  1.1895E+00  2.5968E+00
  7.9600E-01  1.4086E+00  1.1891E+00  2.5978E+00
  7.9700E-01  1.4100E+00  1.1888E+00  2.5987E+00
  7.9800E-01  1.4114E+00  1.1884E+00  2.5997E+00
  7.9900E-01  1.4124E+00  1.1881E+00  2.6005E+00
