# GGADT v1.2.1
# =-=-=
# Total cross sections as a function of energy
# -----------------------------------
# Parameter values
# -----------------------------------
# a_eff:                               1.69677E-01 micron
# ephot_min:                           6.00000E-01kiloelectron-vo
# ephot_max:                           8.00000E-01kiloelectron-vo
# nephots:                                     200
# Material file:                                   hematite
# geometry:                                        ellipsoid
# angle_mode:                                      file
# angle_file:                                      angles
# ngrain:                                      128
# norientations:                                 1
# grain-axis-z:                        1.69677E-01 micron
# grain-axis-y:                        1.69677E-01 micron
# grain-axis-z:                        1.69677E-01 micron
# grid-width:                          3.39355E-01 micron
# axes-convention:                                 ddscat
# parameter_file_name:                             small_params_set.ini
# -----------------------------------
 # [ephot (kiloelectron-volt)] [Q_sca] [Q_abs] [Q_ext]
  6.0000E-01  8.8986E-01  5.5506E-01  1.4449E+00
  6.0100E-01  8.8845E-01  5.5381E-01  1.4423E+00
  6.0200E-01  8.8703E-01  5.5254E-01  1.4396E+00
  6.0300E-01  8.8560E-01  5.5126E-01  1.4369E+00
  6.0400E-01  8.8415E-01  5.4997E-01  1.4341E+00
  6.0500E-01  8.8269E-01  5.4867E-01  1.4314E+00
  6.0600E-01  8.8122E-01  5.4737E-01  1.4286E+00
  6.0700E-01  8.7973E-01  5.4605E-01  1.4258E+00
  6.0800E-01  8.7819E-01  5.4472E-01  1.4229E+00
  6.0900E-01  8.7624E-01  5.4351E-01  1.4198E+00
  6.1000E-01  8.7428E-01  5.4229E-01  1.4166E+00
  6.1100E-01  8.7229E-01  5.4105E-01  1.4133E+00
  6.1200E-01  8.7029E-01  5.3981E-01  1.4101E+00
  6.1300E-01  8.6828E-01  5.3855E-01  1.4068E+00
  6.1400E-01  8.6624E-01  5.3729E-01  1.4035E+00
  6.1500E-01  8.6419E-01  5.3602E-01  1.4002E+00
  6.1600E-01  8.6213E-01  5.3473E-01  1.3969E+00
  6.1700E-01  8.6004E-01  5.3344E-01  1.3935E+00
  6.1800E-01  8.5785E-01  5.3216E-01  1.3900E+00
  6.1900E-01  8.5533E-01  5.3097E-01  1.3863E+00
  6.2000E-01  8.5280E-01  5.2977E-01  1.3826E+00
  6.2100E-01  8.5025E-01  5.2856E-01  1.3788E+00
  6.2200E-01  8.4768E-01  5.2733E-01  1.3750E+00
  6.2300E-01  8.4509E-01  5.2610E-01  1.3712E+00
  6.2400E-01  8.4248E-01  5.2486E-01  1.3673E+00
  6.2500E-01  8.3985E-01  5.2361E-01  1.3635E+00
  6.2600E-01  8.3720E-01  5.2236E-01  1.3596E+00
  6.2700E-01  8.3454E-01  5.2109E-01  1.3556E+00
  6.2800E-01  8.3175E-01  5.1983E-01  1.3516E+00
  6.2900E-01  8.2863E-01  5.1863E-01  1.3473E+00
  6.3000E-01  8.2548E-01  5.1742E-01  1.3429E+00
  6.3100E-01  8.2231E-01  5.1620E-01  1.3385E+00
  6.3200E-01  8.1913E-01  5.1497E-01  1.3341E+00
  6.3300E-01  8.1592E-01  5.1373E-01  1.3297E+00
  6.3400E-01  8.1269E-01  5.1249E-01  1.3252E+00
  6.3500E-01  8.0945E-01  5.1123E-01  1.3207E+00
  6.3600E-01  8.0618E-01  5.0997E-01  1.3161E+00
  6.3700E-01  8.0289E-01  5.0869E-01  1.3116E+00
  6.3800E-01  7.9953E-01  5.0741E-01  1.3069E+00
  6.3900E-01  7.9563E-01  5.0619E-01  1.3018E+00
  6.4000E-01  7.9171E-01  5.0496E-01  1.2967E+00
  6.4100E-01  7.8777E-01  5.0373E-01  1.2915E+00
  6.4200E-01  7.8381E-01  5.0248E-01  1.2863E+00
  6.4300E-01  7.7982E-01  5.0122E-01  1.2810E+00
  6.4400E-01  7.7582E-01  4.9996E-01  1.2758E+00
  6.4500E-01  7.7179E-01  4.9868E-01  1.2705E+00
  6.4600E-01  7.6774E-01  4.9740E-01  1.2651E+00
  6.4700E-01  7.6367E-01  4.9610E-01  1.2598E+00
  6.4800E-01  7.5957E-01  4.9480E-01  1.2544E+00
  6.4900E-01  7.5480E-01  4.9356E-01  1.2484E+00
  6.5000E-01  7.4982E-01  4.9233E-01  1.2422E+00
  6.5100E-01  7.4482E-01  4.9109E-01  1.2359E+00
  6.5200E-01  7.3979E-01  4.8985E-01  1.2296E+00
  6.5300E-01  7.3474E-01  4.8860E-01  1.2233E+00
  6.5400E-01  7.2967E-01  4.8733E-01  1.2170E+00
  6.5500E-01  7.2458E-01  4.8606E-01  1.2106E+00
  6.5600E-01  7.1947E-01  4.8478E-01  1.2042E+00
  6.5700E-01  7.1433E-01  4.8349E-01  1.1978E+00
  6.5800E-01  7.0918E-01  4.8219E-01  1.1914E+00
  6.5900E-01  7.0361E-01  4.8092E-01  1.1845E+00
  6.6000E-01  6.9705E-01  4.7972E-01  1.1768E+00
  6.6100E-01  6.9048E-01  4.7853E-01  1.1690E+00
  6.6200E-01  6.8389E-01  4.7732E-01  1.1612E+00
  6.6300E-01  6.7728E-01  4.7610E-01  1.1534E+00
  6.6400E-01  6.7065E-01  4.7488E-01  1.1455E+00
  6.6500E-01  6.6401E-01  4.7364E-01  1.1377E+00
  6.6600E-01  6.5735E-01  4.7240E-01  1.1298E+00
  6.6700E-01  6.5067E-01  4.7115E-01  1.1218E+00
  6.6800E-01  6.4398E-01  4.6989E-01  1.1139E+00
  6.6900E-01  6.3727E-01  4.6863E-01  1.1059E+00
  6.7000E-01  6.2900E-01  4.6748E-01  1.0965E+00
  6.7100E-01  6.1983E-01  4.6639E-01  1.0862E+00
  6.7200E-01  6.1066E-01  4.6531E-01  1.0760E+00
  6.7300E-01  6.0149E-01  4.6421E-01  1.0657E+00
  6.7400E-01  5.9232E-01  4.6310E-01  1.0554E+00
  6.7500E-01  5.8316E-01  4.6199E-01  1.0452E+00
  6.7600E-01  5.7401E-01  4.6087E-01  1.0349E+00
  6.7700E-01  5.6487E-01  4.5975E-01  1.0246E+00
  6.7800E-01  5.5573E-01  4.5861E-01  1.0143E+00
  6.7900E-01  5.4661E-01  4.5747E-01  1.0041E+00
  6.8000E-01  5.3749E-01  4.5632E-01  9.9382E-01
  6.8100E-01  5.2486E-01  4.5530E-01  9.8016E-01
  6.8200E-01  5.1147E-01  4.5430E-01  9.6577E-01
  6.8300E-01  4.9816E-01  4.5330E-01  9.5146E-01
  6.8400E-01  4.8493E-01  4.5229E-01  9.3722E-01
  6.8500E-01  4.7180E-01  4.5127E-01  9.2308E-01
  6.8600E-01  4.5877E-01  4.5025E-01  9.0902E-01
  6.8700E-01  4.4584E-01  4.4922E-01  8.9506E-01
  6.8800E-01  4.3303E-01  4.4818E-01  8.8121E-01
  6.8900E-01  4.2032E-01  4.4714E-01  8.6746E-01
  6.9000E-01  4.0773E-01  4.4609E-01  8.5382E-01
  6.9100E-01  3.8473E-01  4.3645E-01  8.2118E-01
  6.9200E-01  3.6206E-01  4.4113E-01  8.0319E-01
  6.9300E-01  3.3650E-01  4.3483E-01  7.7133E-01
  6.9400E-01  3.1963E-01  4.3606E-01  7.5570E-01
  6.9500E-01  2.9403E-01  4.4122E-01  7.3525E-01
  6.9600E-01  2.6723E-01  4.3576E-01  7.0299E-01
  6.9700E-01  2.3951E-01  4.3703E-01  6.7654E-01
  6.9800E-01  2.1041E-01  4.3505E-01  6.4546E-01
  6.9900E-01  1.7871E-01  4.3648E-01  6.1519E-01
  7.0000E-01  1.4419E-01  4.3287E-01  5.7705E-01
  7.0100E-01  1.1485E-01  4.4296E-01  5.5781E-01
  7.0200E-01  8.4336E-02  4.3931E-01  5.2365E-01
  7.0300E-01  7.7880E-02  4.5374E-01  5.3162E-01
  7.0400E-01  1.2504E-01  4.7640E-01  6.0144E-01
  7.0500E-01  3.5868E-01  5.4404E-01  9.0272E-01
  7.0600E-01  9.0739E-01  8.5190E-01  1.7593E+00
  7.0700E-01  6.9034E-01  9.2519E-01  1.6155E+00
  7.0800E-01  9.0476E-01  9.8531E-01  1.8901E+00
  7.0900E-01  9.5666E-01  9.6417E-01  1.9208E+00
  7.1000E-01  1.0017E+00  9.1121E-01  1.9129E+00
  7.1100E-01  9.6079E-01  8.7296E-01  1.8338E+00
  7.1200E-01  9.6528E-01  8.3396E-01  1.7992E+00
  7.1300E-01  9.3035E-01  7.7964E-01  1.7100E+00
  7.1400E-01  8.4644E-01  7.4924E-01  1.5957E+00
  7.1500E-01  7.8721E-01  7.3253E-01  1.5197E+00
  7.1600E-01  7.2627E-01  7.0408E-01  1.4304E+00
  7.1700E-01  6.1731E-01  6.7991E-01  1.2972E+00
  7.1800E-01  4.8062E-01  7.0073E-01  1.1814E+00
  7.1900E-01  4.4035E-01  8.0522E-01  1.2456E+00
  7.2000E-01  6.4968E-01  8.5855E-01  1.5082E+00
  7.2100E-01  6.9925E-01  8.8843E-01  1.5877E+00
  7.2200E-01  8.3497E-01  8.6845E-01  1.7034E+00
  7.2300E-01  9.1917E-01  8.1484E-01  1.7340E+00
  7.2400E-01  9.1144E-01  7.5957E-01  1.6710E+00
  7.2500E-01  8.6920E-01  7.2451E-01  1.5937E+00
  7.2600E-01  8.1546E-01  7.0601E-01  1.5215E+00
  7.2700E-01  7.7854E-01  6.9970E-01  1.4782E+00
  7.2800E-01  7.5088E-01  6.9586E-01  1.4467E+00
  7.2900E-01  7.2586E-01  6.8874E-01  1.4146E+00
  7.3000E-01  6.9793E-01  6.8103E-01  1.3790E+00
  7.3100E-01  6.6467E-01  6.8415E-01  1.3488E+00
  7.3200E-01  6.3382E-01  6.8729E-01  1.3211E+00
  7.3300E-01  6.2220E-01  6.9992E-01  1.3221E+00
  7.3400E-01  6.0838E-01  7.0827E-01  1.3166E+00
  7.3500E-01  6.0331E-01  7.1623E-01  1.3195E+00
  7.3600E-01  6.0021E-01  7.2421E-01  1.3244E+00
  7.3700E-01  5.9745E-01  7.3053E-01  1.3280E+00
  7.3800E-01  5.9789E-01  7.3851E-01  1.3364E+00
  7.3900E-01  5.9946E-01  7.4420E-01  1.3437E+00
  7.4000E-01  6.0250E-01  7.5092E-01  1.3534E+00
  7.4100E-01  6.0893E-01  7.5598E-01  1.3649E+00
  7.4200E-01  6.1431E-01  7.5999E-01  1.3743E+00
  7.4300E-01  6.2237E-01  7.6543E-01  1.3878E+00
  7.4400E-01  6.2783E-01  7.6881E-01  1.3966E+00
  7.4500E-01  6.3744E-01  7.7076E-01  1.4082E+00
  7.4600E-01  6.4552E-01  7.7230E-01  1.4178E+00
  7.4700E-01  6.5134E-01  7.7343E-01  1.4248E+00
  7.4800E-01  6.6025E-01  7.7313E-01  1.4334E+00
  7.4900E-01  6.6521E-01  7.7386E-01  1.4391E+00
  7.5000E-01  6.7067E-01  7.7254E-01  1.4432E+00
  7.5100E-01  6.7382E-01  7.7165E-01  1.4455E+00
  7.5200E-01  6.7702E-01  7.7074E-01  1.4478E+00
  7.5300E-01  6.8024E-01  7.6983E-01  1.4501E+00
  7.5400E-01  6.8351E-01  7.6891E-01  1.4524E+00
  7.5500E-01  6.8681E-01  7.6799E-01  1.4548E+00
  7.5600E-01  6.9015E-01  7.6705E-01  1.4572E+00
  7.5700E-01  6.9353E-01  7.6611E-01  1.4596E+00
  7.5800E-01  6.9695E-01  7.6515E-01  1.4621E+00
  7.5900E-01  7.0041E-01  7.6419E-01  1.4646E+00
  7.6000E-01  7.0390E-01  7.6322E-01  1.4671E+00
  7.6100E-01  7.0744E-01  7.6225E-01  1.4697E+00
  7.6200E-01  7.0928E-01  7.6135E-01  1.4706E+00
  7.6300E-01  7.1106E-01  7.6044E-01  1.4715E+00
  7.6400E-01  7.1286E-01  7.5953E-01  1.4724E+00
  7.6500E-01  7.1467E-01  7.5861E-01  1.4733E+00
  7.6600E-01  7.1650E-01  7.5768E-01  1.4742E+00
  7.6700E-01  7.1835E-01  7.5675E-01  1.4751E+00
  7.6800E-01  7.2022E-01  7.5580E-01  1.4760E+00
  7.6900E-01  7.2210E-01  7.5485E-01  1.4770E+00
  7.7000E-01  7.2400E-01  7.5389E-01  1.4779E+00
  7.7100E-01  7.2592E-01  7.5293E-01  1.4788E+00
  7.7200E-01  7.2785E-01  7.5195E-01  1.4798E+00
  7.7300E-01  7.2981E-01  7.5097E-01  1.4808E+00
  7.7400E-01  7.3123E-01  7.5004E-01  1.4813E+00
  7.7500E-01  7.3237E-01  7.4914E-01  1.4815E+00
  7.7600E-01  7.3352E-01  7.4823E-01  1.4817E+00
  7.7700E-01  7.3468E-01  7.4731E-01  1.4820E+00
  7.7800E-01  7.3584E-01  7.4638E-01  1.4822E+00
  7.7900E-01  7.3702E-01  7.4545E-01  1.4825E+00
  7.8000E-01  7.3820E-01  7.4451E-01  1.4827E+00
  7.8100E-01  7.3940E-01  7.4356E-01  1.4830E+00
  7.8200E-01  7.4060E-01  7.4261E-01  1.4832E+00
  7.8300E-01  7.4181E-01  7.4164E-01  1.4835E+00
  7.8400E-01  7.4304E-01  7.4067E-01  1.4837E+00
  7.8500E-01  7.4427E-01  7.3969E-01  1.4840E+00
  7.8600E-01  7.4541E-01  7.3872E-01  1.4841E+00
  7.8700E-01  7.4590E-01  7.3784E-01  1.4837E+00
  7.8800E-01  7.4639E-01  7.3696E-01  1.4834E+00
  7.8900E-01  7.4689E-01  7.3607E-01  1.4830E+00
  7.9000E-01  7.4739E-01  7.3517E-01  1.4826E+00
  7.9100E-01  7.4790E-01  7.3427E-01  1.4822E+00
  7.9200E-01  7.4840E-01  7.3336E-01  1.4818E+00
  7.9300E-01  7.4891E-01  7.3244E-01  1.4813E+00
  7.9400E-01  7.4942E-01  7.3151E-01  1.4809E+00
  7.9500E-01  7.4994E-01  7.3058E-01  1.4805E+00
  7.9600E-01  7.5046E-01  7.2964E-01  1.4801E+00
  7.9700E-01  7.5098E-01  7.2869E-01  1.4797E+00
  7.9800E-01  7.5151E-01  7.2773E-01  1.4792E+00
  7.9900E-01  7.5192E-01  7.2701E-01  1.4789E+00
