# GGADT v1.2.1
# =-=-=
# Total cross sections as a function of energy
# -----------------------------------
# Parameter values
# -----------------------------------
# a_eff:                               4.89032E-01 micron
# ephot_min:                           6.00000E-01kiloelectron-vo
# ephot_max:                           8.00000E-01kiloelectron-vo
# nephots:                                     200
# Material file:                                   hematite
# geometry:                                        ellipsoid
# angle_mode:                                      file
# angle_file:                                      angles
# ngrain:                                      128
# norientations:                                 1
# grain-axis-z:                        5.47075E-01 micron
# grain-axis-y:                        5.47075E-01 micron
# grain-axis-z:                        3.90768E-01 micron
# grid-width:                          1.09415E+00 micron
# axes-convention:                                 ddscat
# parameter_file_name:                             large_params_set.ini
# -----------------------------------
 # [ephot (kiloelectron-volt)] [Q_sca] [Q_abs] [Q_ext]
  6.0000E-01  1.8735E+00  1.0248E+00  2.8983E+00
  6.0100E-01  1.8759E+00  1.0236E+00  2.8995E+00
  6.0200E-01  1.8783E+00  1.0224E+00  2.9007E+00
  6.0300E-01  1.8808E+00  1.0211E+00  2.9019E+00
  6.0400E-01  1.8832E+00  1.0199E+00  2.9031E+00
  6.0500E-01  1.8856E+00  1.0186E+00  2.9042E+00
  6.0600E-01  1.8881E+00  1.0173E+00  2.9054E+00
  6.0700E-01  1.8906E+00  1.0160E+00  2.9066E+00
  6.0800E-01  1.8930E+00  1.0147E+00  2.9077E+00
  6.0900E-01  1.8950E+00  1.0135E+00  2.9085E+00
  6.1000E-01  1.8970E+00  1.0123E+00  2.9093E+00
  6.1100E-01  1.8990E+00  1.0111E+00  2.9101E+00
  6.1200E-01  1.9010E+00  1.0099E+00  2.9108E+00
  6.1300E-01  1.9030E+00  1.0086E+00  2.9116E+00
  6.1400E-01  1.9050E+00  1.0073E+00  2.9123E+00
  6.1500E-01  1.9070E+00  1.0060E+00  2.9130E+00
  6.1600E-01  1.9089E+00  1.0048E+00  2.9137E+00
  6.1700E-01  1.9109E+00  1.0034E+00  2.9144E+00
  6.1800E-01  1.9128E+00  1.0021E+00  2.9149E+00
  6.1900E-01  1.9143E+00  1.0009E+00  2.9152E+00
  6.2000E-01  1.9157E+00  9.9969E-01  2.9154E+00
  6.2100E-01  1.9172E+00  9.9845E-01  2.9156E+00
  6.2200E-01  1.9186E+00  9.9719E-01  2.9158E+00
  6.2300E-01  1.9200E+00  9.9592E-01  2.9160E+00
  6.2400E-01  1.9214E+00  9.9463E-01  2.9161E+00
  6.2500E-01  1.9228E+00  9.9333E-01  2.9161E+00
  6.2600E-01  1.9242E+00  9.9202E-01  2.9162E+00
  6.2700E-01  1.9255E+00  9.9069E-01  2.9162E+00
  6.2800E-01  1.9267E+00  9.8937E-01  2.9161E+00
  6.2900E-01  1.9276E+00  9.8810E-01  2.9157E+00
  6.3000E-01  1.9283E+00  9.8682E-01  2.9152E+00
  6.3100E-01  1.9291E+00  9.8553E-01  2.9146E+00
  6.3200E-01  1.9298E+00  9.8422E-01  2.9140E+00
  6.3300E-01  1.9305E+00  9.8290E-01  2.9134E+00
  6.3400E-01  1.9311E+00  9.8156E-01  2.9127E+00
  6.3500E-01  1.9318E+00  9.8021E-01  2.9120E+00
  6.3600E-01  1.9323E+00  9.7885E-01  2.9112E+00
  6.3700E-01  1.9328E+00  9.7747E-01  2.9103E+00
  6.3800E-01  1.9333E+00  9.7608E-01  2.9094E+00
  6.3900E-01  1.9331E+00  9.7476E-01  2.9079E+00
  6.4000E-01  1.9329E+00  9.7341E-01  2.9063E+00
  6.4100E-01  1.9325E+00  9.7206E-01  2.9046E+00
  6.4200E-01  1.9322E+00  9.7069E-01  2.9029E+00
  6.4300E-01  1.9317E+00  9.6930E-01  2.9010E+00
  6.4400E-01  1.9312E+00  9.6790E-01  2.8991E+00
  6.4500E-01  1.9307E+00  9.6649E-01  2.8971E+00
  6.4600E-01  1.9300E+00  9.6506E-01  2.8951E+00
  6.4700E-01  1.9293E+00  9.6361E-01  2.8929E+00
  6.4800E-01  1.9285E+00  9.6215E-01  2.8906E+00
  6.4900E-01  1.9268E+00  9.6076E-01  2.8876E+00
  6.5000E-01  1.9248E+00  9.5937E-01  2.8842E+00
  6.5100E-01  1.9227E+00  9.5797E-01  2.8807E+00
  6.5200E-01  1.9205E+00  9.5656E-01  2.8770E+00
  6.5300E-01  1.9181E+00  9.5513E-01  2.8732E+00
  6.5400E-01  1.9156E+00  9.5369E-01  2.8693E+00
  6.5500E-01  1.9130E+00  9.5224E-01  2.8653E+00
  6.5600E-01  1.9103E+00  9.5076E-01  2.8611E+00
  6.5700E-01  1.9075E+00  9.4928E-01  2.8568E+00
  6.5800E-01  1.9045E+00  9.4777E-01  2.8523E+00
  6.5900E-01  1.9009E+00  9.4630E-01  2.8472E+00
  6.6000E-01  1.8957E+00  9.4491E-01  2.8406E+00
  6.6100E-01  1.8904E+00  9.4351E-01  2.8339E+00
  6.6200E-01  1.8848E+00  9.4210E-01  2.8269E+00
  6.6300E-01  1.8791E+00  9.4067E-01  2.8197E+00
  6.6400E-01  1.8731E+00  9.3923E-01  2.8123E+00
  6.6500E-01  1.8669E+00  9.3777E-01  2.8047E+00
  6.6600E-01  1.8606E+00  9.3630E-01  2.7969E+00
  6.6700E-01  1.8540E+00  9.3482E-01  2.7888E+00
  6.6800E-01  1.8471E+00  9.3332E-01  2.7805E+00
  6.6900E-01  1.8401E+00  9.3180E-01  2.7719E+00
  6.7000E-01  1.8303E+00  9.3043E-01  2.7607E+00
  6.7100E-01  1.8186E+00  9.2912E-01  2.7477E+00
  6.7200E-01  1.8066E+00  9.2781E-01  2.7344E+00
  6.7300E-01  1.7941E+00  9.2649E-01  2.7206E+00
  6.7400E-01  1.7814E+00  9.2515E-01  2.7065E+00
  6.7500E-01  1.7682E+00  9.2380E-01  2.6920E+00
  6.7600E-01  1.7547E+00  9.2243E-01  2.6771E+00
  6.7700E-01  1.7408E+00  9.2106E-01  2.6618E+00
  6.7800E-01  1.7265E+00  9.1967E-01  2.6462E+00
  6.7900E-01  1.7119E+00  9.1827E-01  2.6301E+00
  6.8000E-01  1.6969E+00  9.1685E-01  2.6137E+00
  6.8100E-01  1.6743E+00  9.1559E-01  2.5899E+00
  6.8200E-01  1.6495E+00  9.1436E-01  2.5638E+00
  6.8300E-01  1.6240E+00  9.1311E-01  2.5371E+00
  6.8400E-01  1.5978E+00  9.1185E-01  2.5096E+00
  6.8500E-01  1.5710E+00  9.1059E-01  2.4816E+00
  6.8600E-01  1.5436E+00  9.0931E-01  2.4529E+00
  6.8700E-01  1.5156E+00  9.0802E-01  2.4236E+00
  6.8800E-01  1.4870E+00  9.0671E-01  2.3937E+00
  6.8900E-01  1.4579E+00  9.0540E-01  2.3633E+00
  6.9000E-01  1.4283E+00  9.0408E-01  2.3324E+00
  6.9100E-01  1.3831E+00  8.9175E-01  2.2749E+00
  6.9200E-01  1.3156E+00  8.9778E-01  2.2134E+00
  6.9300E-01  1.2521E+00  8.8966E-01  2.1418E+00
  6.9400E-01  1.2014E+00  8.9126E-01  2.0927E+00
  6.9500E-01  1.1185E+00  8.9789E-01  2.0164E+00
  6.9600E-01  1.0403E+00  8.9087E-01  1.9312E+00
  6.9700E-01  9.4829E-01  8.9250E-01  1.8408E+00
  6.9800E-01  8.5052E-01  8.8995E-01  1.7405E+00
  6.9900E-01  7.3614E-01  8.9180E-01  1.6279E+00
  7.0000E-01  6.0911E-01  8.8711E-01  1.4962E+00
  7.0100E-01  4.8951E-01  9.0011E-01  1.3896E+00
  7.0200E-01  3.6754E-01  8.9544E-01  1.2630E+00
  7.0300E-01  3.3626E-01  9.1366E-01  1.2499E+00
  7.0400E-01  5.1320E-01  9.4102E-01  1.4542E+00
  7.0500E-01  1.1754E+00  1.0141E+00  2.1894E+00
  7.0600E-01  1.3331E+00  1.2101E+00  2.5432E+00
  7.0700E-01  1.1705E+00  1.2324E+00  2.4029E+00
  7.0800E-01  1.2282E+00  1.2467E+00  2.4749E+00
  7.0900E-01  1.2464E+00  1.2420E+00  2.4884E+00
  7.1000E-01  1.2849E+00  1.2286E+00  2.5136E+00
  7.1100E-01  1.3167E+00  1.2172E+00  2.5339E+00
  7.1200E-01  1.3632E+00  1.2036E+00  2.5668E+00
  7.1300E-01  1.4370E+00  1.1808E+00  2.6178E+00
  7.1400E-01  1.4667E+00  1.1659E+00  2.6326E+00
  7.1500E-01  1.4700E+00  1.1570E+00  2.6269E+00
  7.1600E-01  1.4815E+00  1.1405E+00  2.6219E+00
  7.1700E-01  1.4243E+00  1.1252E+00  2.5495E+00
  7.1800E-01  1.2154E+00  1.1384E+00  2.3538E+00
  7.1900E-01  1.0344E+00  1.1921E+00  2.2265E+00
  7.2000E-01  1.2080E+00  1.2124E+00  2.4204E+00
  7.2100E-01  1.2102E+00  1.2220E+00  2.4322E+00
  7.2200E-01  1.2953E+00  1.2157E+00  2.5110E+00
  7.2300E-01  1.3834E+00  1.1961E+00  2.5795E+00
  7.2400E-01  1.4661E+00  1.1712E+00  2.6372E+00
  7.2500E-01  1.5159E+00  1.1525E+00  2.6684E+00
  7.2600E-01  1.5291E+00  1.1416E+00  2.6707E+00
  7.2700E-01  1.5218E+00  1.1378E+00  2.6596E+00
  7.2800E-01  1.5121E+00  1.1354E+00  2.6475E+00
  7.2900E-01  1.5075E+00  1.1309E+00  2.6384E+00
  7.3000E-01  1.4993E+00  1.1259E+00  2.6251E+00
  7.3100E-01  1.4650E+00  1.1279E+00  2.5929E+00
  7.3200E-01  1.4299E+00  1.1300E+00  2.5599E+00
  7.3300E-01  1.3981E+00  1.1379E+00  2.5360E+00
  7.3400E-01  1.3707E+00  1.1430E+00  2.5137E+00
  7.3500E-01  1.3534E+00  1.1477E+00  2.5011E+00
  7.3600E-01  1.3383E+00  1.1523E+00  2.4906E+00
  7.3700E-01  1.3262E+00  1.1558E+00  2.4821E+00
  7.3800E-01  1.3153E+00  1.1602E+00  2.4755E+00
  7.3900E-01  1.3089E+00  1.1633E+00  2.4722E+00
  7.4000E-01  1.3026E+00  1.1668E+00  2.4694E+00
  7.4100E-01  1.3021E+00  1.1694E+00  2.4714E+00
  7.4200E-01  1.3018E+00  1.1714E+00  2.4732E+00
  7.4300E-01  1.3020E+00  1.1741E+00  2.4761E+00
  7.4400E-01  1.3024E+00  1.1757E+00  2.4781E+00
  7.4500E-01  1.3084E+00  1.1766E+00  2.4850E+00
  7.4600E-01  1.3133E+00  1.1774E+00  2.4907E+00
  7.4700E-01  1.3167E+00  1.1779E+00  2.4946E+00
  7.4800E-01  1.3245E+00  1.1778E+00  2.5023E+00
  7.4900E-01  1.3275E+00  1.1781E+00  2.5056E+00
  7.5000E-01  1.3337E+00  1.1775E+00  2.5111E+00
  7.5100E-01  1.3374E+00  1.1771E+00  2.5145E+00
  7.5200E-01  1.3412E+00  1.1766E+00  2.5178E+00
  7.5300E-01  1.3449E+00  1.1762E+00  2.5211E+00
  7.5400E-01  1.3487E+00  1.1758E+00  2.5245E+00
  7.5500E-01  1.3525E+00  1.1753E+00  2.5278E+00
  7.5600E-01  1.3564E+00  1.1748E+00  2.5312E+00
  7.5700E-01  1.3602E+00  1.1744E+00  2.5346E+00
  7.5800E-01  1.3641E+00  1.1739E+00  2.5380E+00
  7.5900E-01  1.3680E+00  1.1735E+00  2.5414E+00
  7.6000E-01  1.3719E+00  1.1730E+00  2.5448E+00
  7.6100E-01  1.3758E+00  1.1725E+00  2.5483E+00
  7.6200E-01  1.3784E+00  1.1720E+00  2.5504E+00
  7.6300E-01  1.3809E+00  1.1716E+00  2.5525E+00
  7.6400E-01  1.3835E+00  1.1711E+00  2.5547E+00
  7.6500E-01  1.3861E+00  1.1707E+00  2.5568E+00
  7.6600E-01  1.3888E+00  1.1702E+00  2.5590E+00
  7.6700E-01  1.3914E+00  1.1697E+00  2.5612E+00
  7.6800E-01  1.3941E+00  1.1693E+00  2.5634E+00
  7.6900E-01  1.3968E+00  1.1688E+00  2.5656E+00
  7.7000E-01  1.3995E+00  1.1683E+00  2.5678E+00
  7.7100E-01  1.4022E+00  1.1678E+00  2.5700E+00
  7.7200E-01  1.4050E+00  1.1673E+00  2.5723E+00
  7.7300E-01  1.4078E+00  1.1668E+00  2.5746E+00
  7.7400E-01  1.4101E+00  1.1663E+00  2.5764E+00
  7.7500E-01  1.4123E+00  1.1658E+00  2.5781E+00
  7.7600E-01  1.4144E+00  1.1654E+00  2.5798E+00
  7.7700E-01  1.4166E+00  1.1649E+00  2.5815E+00
  7.7800E-01  1.4187E+00  1.1644E+00  2.5831E+00
  7.7900E-01  1.4209E+00  1.1639E+00  2.5849E+00
  7.8000E-01  1.4232E+00  1.1634E+00  2.5866E+00
  7.8100E-01  1.4254E+00  1.1629E+00  2.5883E+00
  7.8200E-01  1.4277E+00  1.1624E+00  2.5901E+00
  7.8300E-01  1.4299E+00  1.1619E+00  2.5918E+00
  7.8400E-01  1.4322E+00  1.1614E+00  2.5936E+00
  7.8500E-01  1.4346E+00  1.1609E+00  2.5954E+00
  7.8600E-01  1.4368E+00  1.1603E+00  2.5971E+00
  7.8700E-01  1.4385E+00  1.1599E+00  2.5984E+00
  7.8800E-01  1.4402E+00  1.1594E+00  2.5996E+00
  7.8900E-01  1.4420E+00  1.1589E+00  2.6009E+00
  7.9000E-01  1.4437E+00  1.1584E+00  2.6021E+00
  7.9100E-01  1.4455E+00  1.1579E+00  2.6034E+00
  7.9200E-01  1.4473E+00  1.1574E+00  2.6047E+00
  7.9300E-01  1.4491E+00  1.1569E+00  2.6060E+00
  7.9400E-01  1.4509E+00  1.1564E+00  2.6073E+00
  7.9500E-01  1.4528E+00  1.1559E+00  2.6086E+00
  7.9600E-01  1.4546E+00  1.1554E+00  2.6100E+00
  7.9700E-01  1.4565E+00  1.1548E+00  2.6113E+00
  7.9800E-01  1.4584E+00  1.1543E+00  2.6127E+00
  7.9900E-01  1.4598E+00  1.1539E+00  2.6137E+00
