# GGADT v1.2.1
# =-=-=
# Total cross sections as a function of energy
# -----------------------------------
# Parameter values
# -----------------------------------
# a_eff:                               7.12581E-01 micron
# ephot_min:                           6.00000E-01kiloelectron-vo
# ephot_max:                           8.00000E-01kiloelectron-vo
# nephots:                                     200
# Material file:                                   hematite
# geometry:                                        ellipsoid
# angle_mode:                                      random
# ngrain:                                      128
# norientations:                                 1
# grain-axis-z:                        7.97156E-01 micron
# grain-axis-y:                        7.97156E-01 micron
# grain-axis-z:                        5.69397E-01 micron
# grid-width:                          1.59431E+00 micron
# axes-convention:                                 ddscat
# parameter_file_name:                             large_params_random.ini
# -----------------------------------
 # [ephot (kiloelectron-volt)] [Q_sca] [Q_abs] [Q_ext]
  6.0000E-01  1.0129E+00  8.8469E-01  1.8976E+00
  6.0100E-01  1.0134E+00  8.8429E-01  1.8976E+00
  6.0200E-01  1.0138E+00  8.8389E-01  1.8977E+00
  6.0300E-01  1.0142E+00  8.8349E-01  1.8977E+00
  6.0400E-01  1.0146E+00  8.8308E-01  1.8977E+00
  6.0500E-01  1.0151E+00  8.8266E-01  1.8977E+00
  6.0600E-01  1.0155E+00  8.8224E-01  1.8978E+00
  6.0700E-01  1.0160E+00  8.8181E-01  1.8978E+00
  6.0800E-01  1.0165E+00  8.8137E-01  1.8979E+00
  6.0900E-01  1.0170E+00  8.8097E-01  1.8980E+00
  6.1000E-01  1.0176E+00  8.8056E-01  1.8981E+00
  6.1100E-01  1.0181E+00  8.8015E-01  1.8982E+00
  6.1200E-01  1.0187E+00  8.7973E-01  1.8984E+00
  6.1300E-01  1.0192E+00  8.7931E-01  1.8985E+00
  6.1400E-01  1.0198E+00  8.7888E-01  1.8987E+00
  6.1500E-01  1.0204E+00  8.7844E-01  1.8989E+00
  6.1600E-01  1.0211E+00  8.7799E-01  1.8991E+00
  6.1700E-01  1.0217E+00  8.7754E-01  1.8993E+00
  6.1800E-01  1.0224E+00  8.7710E-01  1.8995E+00
  6.1900E-01  1.0231E+00  8.7668E-01  1.8998E+00
  6.2000E-01  1.0239E+00  8.7625E-01  1.9001E+00
  6.2100E-01  1.0246E+00  8.7582E-01  1.9004E+00
  6.2200E-01  1.0254E+00  8.7538E-01  1.9008E+00
  6.2300E-01  1.0262E+00  8.7493E-01  1.9012E+00
  6.2400E-01  1.0271E+00  8.7448E-01  1.9015E+00
  6.2500E-01  1.0279E+00  8.7402E-01  1.9020E+00
  6.2600E-01  1.0288E+00  8.7356E-01  1.9024E+00
  6.2700E-01  1.0297E+00  8.7308E-01  1.9028E+00
  6.2800E-01  1.0307E+00  8.7261E-01  1.9033E+00
  6.2900E-01  1.0318E+00  8.7216E-01  1.9039E+00
  6.3000E-01  1.0328E+00  8.7170E-01  1.9045E+00
  6.3100E-01  1.0339E+00  8.7124E-01  1.9052E+00
  6.3200E-01  1.0351E+00  8.7077E-01  1.9058E+00
  6.3300E-01  1.0363E+00  8.7029E-01  1.9066E+00
  6.3400E-01  1.0375E+00  8.6981E-01  1.9073E+00
  6.3500E-01  1.0387E+00  8.6931E-01  1.9081E+00
  6.3600E-01  1.0400E+00  8.6882E-01  1.9089E+00
  6.3700E-01  1.0414E+00  8.6831E-01  1.9097E+00
  6.3800E-01  1.0428E+00  8.6780E-01  1.9106E+00
  6.3900E-01  1.0443E+00  8.6731E-01  1.9116E+00
  6.4000E-01  1.0459E+00  8.6681E-01  1.9127E+00
  6.4100E-01  1.0476E+00  8.6631E-01  1.9139E+00
  6.4200E-01  1.0493E+00  8.6580E-01  1.9151E+00
  6.4300E-01  1.0511E+00  8.6528E-01  1.9163E+00
  6.4400E-01  1.0529E+00  8.6475E-01  1.9176E+00
  6.4500E-01  1.0548E+00  8.6422E-01  1.9190E+00
  6.4600E-01  1.0567E+00  8.6368E-01  1.9204E+00
  6.4700E-01  1.0587E+00  8.6313E-01  1.9218E+00
  6.4800E-01  1.0607E+00  8.6258E-01  1.9233E+00
  6.4900E-01  1.0630E+00  8.6204E-01  1.9251E+00
  6.5000E-01  1.0655E+00  8.6151E-01  1.9270E+00
  6.5100E-01  1.0680E+00  8.6098E-01  1.9290E+00
  6.5200E-01  1.0706E+00  8.6043E-01  1.9310E+00
  6.5300E-01  1.0732E+00  8.5988E-01  1.9331E+00
  6.5400E-01  1.0759E+00  8.5932E-01  1.9353E+00
  6.5500E-01  1.0788E+00  8.5875E-01  1.9375E+00
  6.5600E-01  1.0816E+00  8.5818E-01  1.9398E+00
  6.5700E-01  1.0846E+00  8.5759E-01  1.9422E+00
  6.5800E-01  1.0876E+00  8.5700E-01  1.9446E+00
  6.5900E-01  1.0909E+00  8.5642E-01  1.9473E+00
  6.6000E-01  1.0946E+00  8.5587E-01  1.9505E+00
  6.6100E-01  1.0984E+00  8.5531E-01  1.9537E+00
  6.6200E-01  1.1023E+00  8.5475E-01  1.9571E+00
  6.6300E-01  1.1063E+00  8.5417E-01  1.9605E+00
  6.6400E-01  1.1104E+00  8.5360E-01  1.9640E+00
  6.6500E-01  1.1145E+00  8.5301E-01  1.9675E+00
  6.6600E-01  1.1188E+00  8.5241E-01  1.9712E+00
  6.6700E-01  1.1231E+00  8.5181E-01  1.9749E+00
  6.6800E-01  1.1275E+00  8.5120E-01  1.9787E+00
  6.6900E-01  1.1320E+00  8.5058E-01  1.9825E+00
  6.7000E-01  1.1371E+00  8.5001E-01  1.9872E+00
  6.7100E-01  1.1428E+00  8.4948E-01  1.9922E+00
  6.7200E-01  1.1484E+00  8.4894E-01  1.9973E+00
  6.7300E-01  1.1541E+00  8.4839E-01  2.0025E+00
  6.7400E-01  1.1598E+00  8.4783E-01  2.0076E+00
  6.7500E-01  1.1655E+00  8.4727E-01  2.0128E+00
  6.7600E-01  1.1712E+00  8.4670E-01  2.0179E+00
  6.7700E-01  1.1768E+00  8.4613E-01  2.0229E+00
  6.7800E-01  1.1824E+00  8.4554E-01  2.0280E+00
  6.7900E-01  1.1879E+00  8.4495E-01  2.0329E+00
  6.8000E-01  1.1934E+00  8.4435E-01  2.0377E+00
  6.8100E-01  1.2000E+00  8.4382E-01  2.0438E+00
  6.8200E-01  1.2064E+00  8.4329E-01  2.0497E+00
  6.8300E-01  1.2125E+00  8.4276E-01  2.0552E+00
  6.8400E-01  1.2180E+00  8.4222E-01  2.0602E+00
  6.8500E-01  1.2229E+00  8.4168E-01  2.0646E+00
  6.8600E-01  1.2272E+00  8.4113E-01  2.0683E+00
  6.8700E-01  1.2307E+00  8.4057E-01  2.0713E+00
  6.8800E-01  1.2335E+00  8.4001E-01  2.0735E+00
  6.8900E-01  1.2354E+00  8.3944E-01  2.0748E+00
  6.9000E-01  1.2363E+00  8.3886E-01  2.0752E+00
  6.9100E-01  1.2490E+00  8.3341E-01  2.0824E+00
  6.9200E-01  1.2328E+00  8.3610E-01  2.0689E+00
  6.9300E-01  1.2297E+00  8.3248E-01  2.0622E+00
  6.9400E-01  1.2144E+00  8.3319E-01  2.0476E+00
  6.9500E-01  1.1791E+00  8.3615E-01  2.0153E+00
  6.9600E-01  1.1529E+00  8.3302E-01  1.9859E+00
  6.9700E-01  1.1026E+00  8.3375E-01  1.9363E+00
  6.9800E-01  1.0421E+00  8.3260E-01  1.8748E+00
  6.9900E-01  9.5285E-01  8.3344E-01  1.7863E+00
  7.0000E-01  8.3971E-01  8.3132E-01  1.6710E+00
  7.0100E-01  7.0528E-01  8.3712E-01  1.5424E+00
  7.0200E-01  5.5978E-01  8.3506E-01  1.3948E+00
  7.0300E-01  5.1254E-01  8.4299E-01  1.3555E+00
  7.0400E-01  7.1066E-01  8.5431E-01  1.5650E+00
  7.0500E-01  1.0771E+00  8.8115E-01  1.9583E+00
  7.0600E-01  9.5353E-01  9.3226E-01  1.8858E+00
  7.0700E-01  9.2465E-01  9.3682E-01  1.8615E+00
  7.0800E-01  9.3588E-01  9.3986E-01  1.8757E+00
  7.0900E-01  9.3952E-01  9.3882E-01  1.8783E+00
  7.1000E-01  9.4667E-01  9.3605E-01  1.8827E+00
  7.1100E-01  9.5134E-01  9.3371E-01  1.8851E+00
  7.1200E-01  9.5810E-01  9.3092E-01  1.8890E+00
  7.1300E-01  9.6762E-01  9.2612E-01  1.8937E+00
  7.1400E-01  9.7268E-01  9.2285E-01  1.8955E+00
  7.1500E-01  9.7643E-01  9.2084E-01  1.8973E+00
  7.1600E-01  9.8526E-01  9.1701E-01  1.9023E+00
  7.1700E-01  9.9800E-01  9.1330E-01  1.9113E+00
  7.1800E-01  9.7601E-01  9.1652E-01  1.8925E+00
  7.1900E-01  9.0292E-01  9.2853E-01  1.8314E+00
  7.2000E-01  9.3552E-01  9.3273E-01  1.8683E+00
  7.2100E-01  9.3374E-01  9.3470E-01  1.8684E+00
  7.2200E-01  9.4781E-01  9.3341E-01  1.8812E+00
  7.2300E-01  9.6068E-01  9.2936E-01  1.8900E+00
  7.2400E-01  9.7125E-01  9.2401E-01  1.8953E+00
  7.2500E-01  9.7798E-01  9.1981E-01  1.8978E+00
  7.2600E-01  9.8247E-01  9.1729E-01  1.8998E+00
  7.2700E-01  9.8491E-01  9.1637E-01  1.9013E+00
  7.2800E-01  9.8688E-01  9.1580E-01  1.9027E+00
  7.2900E-01  9.9005E-01  9.1471E-01  1.9048E+00
  7.3000E-01  9.9402E-01  9.1348E-01  1.9075E+00
  7.3100E-01  9.9449E-01  9.1398E-01  1.9085E+00
  7.3200E-01  9.9428E-01  9.1448E-01  1.9088E+00
  7.3300E-01  9.8898E-01  9.1640E-01  1.9054E+00
  7.3400E-01  9.8519E-01  9.1761E-01  1.9028E+00
  7.3500E-01  9.8154E-01  9.1871E-01  1.9003E+00
  7.3600E-01  9.7793E-01  9.1977E-01  1.8977E+00
  7.3700E-01  9.7505E-01  9.2059E-01  1.8956E+00
  7.3800E-01  9.7167E-01  9.2158E-01  1.8932E+00
  7.3900E-01  9.6941E-01  9.2226E-01  1.8917E+00
  7.4000E-01  9.6689E-01  9.2304E-01  1.8899E+00
  7.4100E-01  9.6538E-01  9.2362E-01  1.8890E+00
  7.4200E-01  9.6424E-01  9.2406E-01  1.8883E+00
  7.4300E-01  9.6281E-01  9.2465E-01  1.8875E+00
  7.4400E-01  9.6198E-01  9.2501E-01  1.8870E+00
  7.4500E-01  9.6197E-01  9.2521E-01  1.8872E+00
  7.4600E-01  9.6198E-01  9.2537E-01  1.8874E+00
  7.4700E-01  9.6196E-01  9.2549E-01  1.8875E+00
  7.4800E-01  9.6259E-01  9.2546E-01  1.8880E+00
  7.4900E-01  9.6262E-01  9.2553E-01  1.8882E+00
  7.5000E-01  9.6333E-01  9.2540E-01  1.8887E+00
  7.5100E-01  9.6376E-01  9.2530E-01  1.8891E+00
  7.5200E-01  9.6420E-01  9.2521E-01  1.8894E+00
  7.5300E-01  9.6462E-01  9.2512E-01  1.8897E+00
  7.5400E-01  9.6504E-01  9.2502E-01  1.8901E+00
  7.5500E-01  9.6546E-01  9.2492E-01  1.8904E+00
  7.5600E-01  9.6587E-01  9.2482E-01  1.8907E+00
  7.5700E-01  9.6627E-01  9.2472E-01  1.8910E+00
  7.5800E-01  9.6667E-01  9.2462E-01  1.8913E+00
  7.5900E-01  9.6706E-01  9.2452E-01  1.8916E+00
  7.6000E-01  9.6745E-01  9.2441E-01  1.8919E+00
  7.6100E-01  9.6783E-01  9.2431E-01  1.8921E+00
  7.6200E-01  9.6814E-01  9.2421E-01  1.8924E+00
  7.6300E-01  9.6845E-01  9.2411E-01  1.8926E+00
  7.6400E-01  9.6876E-01  9.2401E-01  1.8928E+00
  7.6500E-01  9.6906E-01  9.2391E-01  1.8930E+00
  7.6600E-01  9.6937E-01  9.2381E-01  1.8932E+00
  7.6700E-01  9.6967E-01  9.2370E-01  1.8934E+00
  7.6800E-01  9.6997E-01  9.2360E-01  1.8936E+00
  7.6900E-01  9.7028E-01  9.2349E-01  1.8938E+00
  7.7000E-01  9.7058E-01  9.2338E-01  1.8940E+00
  7.7100E-01  9.7088E-01  9.2327E-01  1.8942E+00
  7.7200E-01  9.7118E-01  9.2316E-01  1.8943E+00
  7.7300E-01  9.7148E-01  9.2305E-01  1.8945E+00
  7.7400E-01  9.7176E-01  9.2294E-01  1.8947E+00
  7.7500E-01  9.7202E-01  9.2284E-01  1.8949E+00
  7.7600E-01  9.7229E-01  9.2273E-01  1.8950E+00
  7.7700E-01  9.7255E-01  9.2263E-01  1.8952E+00
  7.7800E-01  9.7282E-01  9.2252E-01  1.8953E+00
  7.7900E-01  9.7308E-01  9.2241E-01  1.8955E+00
  7.8000E-01  9.7335E-01  9.2230E-01  1.8956E+00
  7.8100E-01  9.7362E-01  9.2218E-01  1.8958E+00
  7.8200E-01  9.7389E-01  9.2207E-01  1.8960E+00
  7.8300E-01  9.7416E-01  9.2196E-01  1.8961E+00
  7.8400E-01  9.7443E-01  9.2184E-01  1.8963E+00
  7.8500E-01  9.7470E-01  9.2172E-01  1.8964E+00
  7.8600E-01  9.7496E-01  9.2160E-01  1.8966E+00
  7.8700E-01  9.7520E-01  9.2150E-01  1.8967E+00
  7.8800E-01  9.7544E-01  9.2139E-01  1.8968E+00
  7.8900E-01  9.7569E-01  9.2128E-01  1.8970E+00
  7.9000E-01  9.7593E-01  9.2117E-01  1.8971E+00
  7.9100E-01  9.7618E-01  9.2106E-01  1.8972E+00
  7.9200E-01  9.7642E-01  9.2094E-01  1.8974E+00
  7.9300E-01  9.7667E-01  9.2083E-01  1.8975E+00
  7.9400E-01  9.7692E-01  9.2071E-01  1.8976E+00
  7.9500E-01  9.7717E-01  9.2059E-01  1.8978E+00
  7.9600E-01  9.7743E-01  9.2047E-01  1.8979E+00
  7.9700E-01  9.7768E-01  9.2035E-01  1.8980E+00
  7.9800E-01  9.7794E-01  9.2023E-01  1.8982E+00
  7.9900E-01  9.7813E-01  9.2014E-01  1.8983E+00
