# GGADT v1.2.1
# =-=-=
# Total cross sections as a function of energy
# -----------------------------------
# Parameter values
# -----------------------------------
# a_eff:                               7.12581E-01 micron
# ephot_min:                           6.00000E-01kiloelectron-vo
# ephot_max:                           8.00000E-01kiloelectron-vo
# nephots:                                     200
# Material file:                                   hematite
# geometry:                                        ellipsoid
# angle_mode:                                      file
# angle_file:                                      angles
# ngrain:                                      128
# norientations:                                 1
# grain-axis-z:                        7.97156E-01 micron
# grain-axis-y:                        7.97156E-01 micron
# grain-axis-z:                        5.69397E-01 micron
# grid-width:                          1.59431E+00 micron
# axes-convention:                                 ddscat
# parameter_file_name:                             large_params_set.ini
# -----------------------------------
 # [ephot (kiloelectron-volt)] [Q_sca] [Q_abs] [Q_ext]
  6.0000E-01  1.5396E+00  1.1266E+00  2.6661E+00
  6.0100E-01  1.5421E+00  1.1257E+00  2.6679E+00
  6.0200E-01  1.5448E+00  1.1249E+00  2.6697E+00
  6.0300E-01  1.5474E+00  1.1241E+00  2.6715E+00
  6.0400E-01  1.5501E+00  1.1233E+00  2.6734E+00
  6.0500E-01  1.5529E+00  1.1224E+00  2.6753E+00
  6.0600E-01  1.5557E+00  1.1216E+00  2.6772E+00
  6.0700E-01  1.5585E+00  1.1207E+00  2.6792E+00
  6.0800E-01  1.5614E+00  1.1198E+00  2.6812E+00
  6.0900E-01  1.5643E+00  1.1190E+00  2.6833E+00
  6.1000E-01  1.5673E+00  1.1182E+00  2.6855E+00
  6.1100E-01  1.5703E+00  1.1173E+00  2.6877E+00
  6.1200E-01  1.5734E+00  1.1165E+00  2.6899E+00
  6.1300E-01  1.5765E+00  1.1156E+00  2.6922E+00
  6.1400E-01  1.5797E+00  1.1148E+00  2.6944E+00
  6.1500E-01  1.5829E+00  1.1139E+00  2.6968E+00
  6.1600E-01  1.5861E+00  1.1130E+00  2.6991E+00
  6.1700E-01  1.5894E+00  1.1121E+00  2.7015E+00
  6.1800E-01  1.5927E+00  1.1112E+00  2.7039E+00
  6.1900E-01  1.5961E+00  1.1104E+00  2.7065E+00
  6.2000E-01  1.5995E+00  1.1095E+00  2.7091E+00
  6.2100E-01  1.6030E+00  1.1086E+00  2.7117E+00
  6.2200E-01  1.6065E+00  1.1078E+00  2.7143E+00
  6.2300E-01  1.6101E+00  1.1069E+00  2.7170E+00
  6.2400E-01  1.6137E+00  1.1060E+00  2.7197E+00
  6.2500E-01  1.6173E+00  1.1051E+00  2.7224E+00
  6.2600E-01  1.6210E+00  1.1042E+00  2.7251E+00
  6.2700E-01  1.6247E+00  1.1032E+00  2.7279E+00
  6.2800E-01  1.6285E+00  1.1023E+00  2.7308E+00
  6.2900E-01  1.6324E+00  1.1014E+00  2.7338E+00
  6.3000E-01  1.6363E+00  1.1005E+00  2.7368E+00
  6.3100E-01  1.6402E+00  1.0996E+00  2.7398E+00
  6.3200E-01  1.6442E+00  1.0987E+00  2.7429E+00
  6.3300E-01  1.6483E+00  1.0977E+00  2.7460E+00
  6.3400E-01  1.6523E+00  1.0968E+00  2.7491E+00
  6.3500E-01  1.6564E+00  1.0958E+00  2.7523E+00
  6.3600E-01  1.6606E+00  1.0949E+00  2.7554E+00
  6.3700E-01  1.6648E+00  1.0939E+00  2.7586E+00
  6.3800E-01  1.6690E+00  1.0929E+00  2.7619E+00
  6.3900E-01  1.6734E+00  1.0919E+00  2.7653E+00
  6.4000E-01  1.6778E+00  1.0910E+00  2.7688E+00
  6.4100E-01  1.6823E+00  1.0900E+00  2.7723E+00
  6.4200E-01  1.6867E+00  1.0890E+00  2.7757E+00
  6.4300E-01  1.6913E+00  1.0880E+00  2.7792E+00
  6.4400E-01  1.6958E+00  1.0870E+00  2.7828E+00
  6.4500E-01  1.7003E+00  1.0859E+00  2.7863E+00
  6.4600E-01  1.7049E+00  1.0849E+00  2.7898E+00
  6.4700E-01  1.7095E+00  1.0839E+00  2.7934E+00
  6.4800E-01  1.7141E+00  1.0828E+00  2.7969E+00
  6.4900E-01  1.7189E+00  1.0818E+00  2.8007E+00
  6.5000E-01  1.7237E+00  1.0808E+00  2.8044E+00
  6.5100E-01  1.7285E+00  1.0797E+00  2.8082E+00
  6.5200E-01  1.7332E+00  1.0787E+00  2.8119E+00
  6.5300E-01  1.7380E+00  1.0776E+00  2.8156E+00
  6.5400E-01  1.7427E+00  1.0766E+00  2.8193E+00
  6.5500E-01  1.7475E+00  1.0755E+00  2.8230E+00
  6.5600E-01  1.7522E+00  1.0744E+00  2.8266E+00
  6.5700E-01  1.7569E+00  1.0733E+00  2.8301E+00
  6.5800E-01  1.7615E+00  1.0722E+00  2.8337E+00
  6.5900E-01  1.7662E+00  1.0711E+00  2.8372E+00
  6.6000E-01  1.7708E+00  1.0700E+00  2.8408E+00
  6.6100E-01  1.7754E+00  1.0690E+00  2.8443E+00
  6.6200E-01  1.7798E+00  1.0679E+00  2.8477E+00
  6.6300E-01  1.7841E+00  1.0669E+00  2.8510E+00
  6.6400E-01  1.7883E+00  1.0658E+00  2.8541E+00
  6.6500E-01  1.7924E+00  1.0647E+00  2.8571E+00
  6.6600E-01  1.7964E+00  1.0636E+00  2.8599E+00
  6.6700E-01  1.8002E+00  1.0624E+00  2.8626E+00
  6.6800E-01  1.8038E+00  1.0613E+00  2.8651E+00
  6.6900E-01  1.8073E+00  1.0601E+00  2.8674E+00
  6.7000E-01  1.8103E+00  1.0591E+00  2.8694E+00
  6.7100E-01  1.8128E+00  1.0581E+00  2.8709E+00
  6.7200E-01  1.8149E+00  1.0571E+00  2.8720E+00
  6.7300E-01  1.8166E+00  1.0561E+00  2.8726E+00
  6.7400E-01  1.8178E+00  1.0551E+00  2.8729E+00
  6.7500E-01  1.8187E+00  1.0540E+00  2.8727E+00
  6.7600E-01  1.8191E+00  1.0530E+00  2.8720E+00
  6.7700E-01  1.8190E+00  1.0519E+00  2.8709E+00
  6.7800E-01  1.8184E+00  1.0508E+00  2.8693E+00
  6.7900E-01  1.8174E+00  1.0497E+00  2.8671E+00
  6.8000E-01  1.8158E+00  1.0487E+00  2.8645E+00
  6.8100E-01  1.8113E+00  1.0477E+00  2.8589E+00
  6.8200E-01  1.8050E+00  1.0467E+00  2.8517E+00
  6.8300E-01  1.7975E+00  1.0457E+00  2.8432E+00
  6.8400E-01  1.7887E+00  1.0448E+00  2.8335E+00
  6.8500E-01  1.7787E+00  1.0438E+00  2.8224E+00
  6.8600E-01  1.7673E+00  1.0428E+00  2.8101E+00
  6.8700E-01  1.7547E+00  1.0418E+00  2.7965E+00
  6.8800E-01  1.7408E+00  1.0407E+00  2.7815E+00
  6.8900E-01  1.7255E+00  1.0397E+00  2.7652E+00
  6.9000E-01  1.7089E+00  1.0387E+00  2.7475E+00
  6.9100E-01  1.6933E+00  1.0289E+00  2.7222E+00
  6.9200E-01  1.6378E+00  1.0337E+00  2.6715E+00
  6.9300E-01  1.5961E+00  1.0272E+00  2.6233E+00
  6.9400E-01  1.5519E+00  1.0285E+00  2.5803E+00
  6.9500E-01  1.4717E+00  1.0338E+00  2.5055E+00
  6.9600E-01  1.4022E+00  1.0282E+00  2.4303E+00
  6.9700E-01  1.3061E+00  1.0295E+00  2.3356E+00
  6.9800E-01  1.1999E+00  1.0274E+00  2.2273E+00
  6.9900E-01  1.0641E+00  1.0289E+00  2.0930E+00
  7.0000E-01  9.0604E-01  1.0251E+00  1.9312E+00
  7.0100E-01  7.4136E-01  1.0355E+00  1.7769E+00
  7.0200E-01  5.7075E-01  1.0318E+00  1.6026E+00
  7.0300E-01  5.2130E-01  1.0462E+00  1.5675E+00
  7.0400E-01  7.5987E-01  1.0671E+00  1.8270E+00
  7.0500E-01  1.4141E+00  1.1194E+00  2.5335E+00
  7.0600E-01  1.2824E+00  1.2314E+00  2.5138E+00
  7.0700E-01  1.2141E+00  1.2418E+00  2.4559E+00
  7.0800E-01  1.2400E+00  1.2482E+00  2.4882E+00
  7.0900E-01  1.2486E+00  1.2462E+00  2.4948E+00
  7.1000E-01  1.2655E+00  1.2401E+00  2.5055E+00
  7.1100E-01  1.2762E+00  1.2347E+00  2.5109E+00
  7.1200E-01  1.2916E+00  1.2283E+00  2.5199E+00
  7.1300E-01  1.3178E+00  1.2172E+00  2.5350E+00
  7.1400E-01  1.3424E+00  1.2097E+00  2.5521E+00
  7.1500E-01  1.3597E+00  1.2051E+00  2.5647E+00
  7.1600E-01  1.3898E+00  1.1963E+00  2.5861E+00
  7.1700E-01  1.4085E+00  1.1879E+00  2.5965E+00
  7.1800E-01  1.3122E+00  1.1952E+00  2.5074E+00
  7.1900E-01  1.1565E+00  1.2228E+00  2.3793E+00
  7.2000E-01  1.2401E+00  1.2325E+00  2.4726E+00
  7.2100E-01  1.2360E+00  1.2370E+00  2.4730E+00
  7.2200E-01  1.2699E+00  1.2340E+00  2.5039E+00
  7.2300E-01  1.3000E+00  1.2247E+00  2.5247E+00
  7.2400E-01  1.3305E+00  1.2124E+00  2.5429E+00
  7.2500E-01  1.3591E+00  1.2027E+00  2.5618E+00
  7.2600E-01  1.3817E+00  1.1969E+00  2.5786E+00
  7.2700E-01  1.3919E+00  1.1949E+00  2.5867E+00
  7.2800E-01  1.3980E+00  1.1936E+00  2.5916E+00
  7.2900E-01  1.4072E+00  1.1911E+00  2.5982E+00
  7.3000E-01  1.4166E+00  1.1883E+00  2.6049E+00
  7.3100E-01  1.4108E+00  1.1895E+00  2.6002E+00
  7.3200E-01  1.4023E+00  1.1906E+00  2.5929E+00
  7.3300E-01  1.3838E+00  1.1949E+00  2.5787E+00
  7.3400E-01  1.3697E+00  1.1977E+00  2.5674E+00
  7.3500E-01  1.3585E+00  1.2002E+00  2.5587E+00
  7.3600E-01  1.3480E+00  1.2026E+00  2.5506E+00
  7.3700E-01  1.3397E+00  1.2045E+00  2.5442E+00
  7.3800E-01  1.3308E+00  1.2067E+00  2.5375E+00
  7.3900E-01  1.3250E+00  1.2083E+00  2.5333E+00
  7.4000E-01  1.3187E+00  1.2101E+00  2.5288E+00
  7.4100E-01  1.3155E+00  1.2114E+00  2.5270E+00
  7.4200E-01  1.3131E+00  1.2125E+00  2.5256E+00
  7.4300E-01  1.3101E+00  1.2138E+00  2.5239E+00
  7.4400E-01  1.3083E+00  1.2146E+00  2.5230E+00
  7.4500E-01  1.3092E+00  1.2151E+00  2.5243E+00
  7.4600E-01  1.3098E+00  1.2155E+00  2.5253E+00
  7.4700E-01  1.3101E+00  1.2158E+00  2.5259E+00
  7.4800E-01  1.3125E+00  1.2157E+00  2.5282E+00
  7.4900E-01  1.3129E+00  1.2159E+00  2.5287E+00
  7.5000E-01  1.3152E+00  1.2155E+00  2.5307E+00
  7.5100E-01  1.3166E+00  1.2153E+00  2.5320E+00
  7.5200E-01  1.3181E+00  1.2151E+00  2.5332E+00
  7.5300E-01  1.3195E+00  1.2149E+00  2.5344E+00
  7.5400E-01  1.3209E+00  1.2147E+00  2.5356E+00
  7.5500E-01  1.3223E+00  1.2144E+00  2.5367E+00
  7.5600E-01  1.3237E+00  1.2142E+00  2.5379E+00
  7.5700E-01  1.3250E+00  1.2140E+00  2.5390E+00
  7.5800E-01  1.3264E+00  1.2138E+00  2.5401E+00
  7.5900E-01  1.3277E+00  1.2135E+00  2.5412E+00
  7.6000E-01  1.3290E+00  1.2133E+00  2.5423E+00
  7.6100E-01  1.3303E+00  1.2130E+00  2.5434E+00
  7.6200E-01  1.3314E+00  1.2128E+00  2.5442E+00
  7.6300E-01  1.3324E+00  1.2126E+00  2.5450E+00
  7.6400E-01  1.3334E+00  1.2123E+00  2.5457E+00
  7.6500E-01  1.3344E+00  1.2121E+00  2.5465E+00
  7.6600E-01  1.3354E+00  1.2119E+00  2.5473E+00
  7.6700E-01  1.3365E+00  1.2116E+00  2.5481E+00
  7.6800E-01  1.3375E+00  1.2114E+00  2.5489E+00
  7.6900E-01  1.3385E+00  1.2111E+00  2.5497E+00
  7.7000E-01  1.3395E+00  1.2109E+00  2.5504E+00
  7.7100E-01  1.3406E+00  1.2106E+00  2.5512E+00
  7.7200E-01  1.3416E+00  1.2104E+00  2.5520E+00
  7.7300E-01  1.3426E+00  1.2101E+00  2.5527E+00
  7.7400E-01  1.3436E+00  1.2099E+00  2.5534E+00
  7.7500E-01  1.3445E+00  1.2096E+00  2.5541E+00
  7.7600E-01  1.3454E+00  1.2094E+00  2.5548E+00
  7.7700E-01  1.3463E+00  1.2092E+00  2.5554E+00
  7.7800E-01  1.3472E+00  1.2089E+00  2.5561E+00
  7.7900E-01  1.3481E+00  1.2087E+00  2.5567E+00
  7.8000E-01  1.3490E+00  1.2084E+00  2.5574E+00
  7.8100E-01  1.3499E+00  1.2081E+00  2.5581E+00
  7.8200E-01  1.3509E+00  1.2079E+00  2.5587E+00
  7.8300E-01  1.3518E+00  1.2076E+00  2.5594E+00
  7.8400E-01  1.3527E+00  1.2073E+00  2.5601E+00
  7.8500E-01  1.3537E+00  1.2071E+00  2.5608E+00
  7.8600E-01  1.3546E+00  1.2068E+00  2.5614E+00
  7.8700E-01  1.3555E+00  1.2066E+00  2.5620E+00
  7.8800E-01  1.3563E+00  1.2063E+00  2.5626E+00
  7.8900E-01  1.3571E+00  1.2061E+00  2.5632E+00
  7.9000E-01  1.3580E+00  1.2058E+00  2.5638E+00
  7.9100E-01  1.3589E+00  1.2055E+00  2.5644E+00
  7.9200E-01  1.3597E+00  1.2053E+00  2.5650E+00
  7.9300E-01  1.3606E+00  1.2050E+00  2.5657E+00
  7.9400E-01  1.3615E+00  1.2048E+00  2.5663E+00
  7.9500E-01  1.3624E+00  1.2045E+00  2.5669E+00
  7.9600E-01  1.3633E+00  1.2042E+00  2.5675E+00
  7.9700E-01  1.3642E+00  1.2039E+00  2.5682E+00
  7.9800E-01  1.3652E+00  1.2037E+00  2.5688E+00
  7.9900E-01  1.3659E+00  1.2034E+00  2.5693E+00
