# GGADT v1.2.1
# =-=-=
# Total cross sections as a function of energy
# -----------------------------------
# Parameter values
# -----------------------------------
# a_eff:                               3.93226E-01 micron
# ephot_min:                           6.00000E-01kiloelectron-vo
# ephot_max:                           8.00000E-01kiloelectron-vo
# nephots:                                     200
# Material file:                                   hematite
# geometry:                                        ellipsoid
# angle_mode:                                      file
# angle_file:                                      angles
# ngrain:                                      128
# norientations:                                 1
# grain-axis-z:                        4.39897E-01 micron
# grain-axis-y:                        4.39897E-01 micron
# grain-axis-z:                        3.14212E-01 micron
# grid-width:                          8.79795E-01 micron
# axes-convention:                                 ddscat
# parameter_file_name:                             large_params_set.ini
# -----------------------------------
 # [ephot (kiloelectron-volt)] [Q_sca] [Q_abs] [Q_ext]
  6.0000E-01  1.8499E+00  9.4834E-01  2.7983E+00
  6.0100E-01  1.8507E+00  9.4694E-01  2.7977E+00
  6.0200E-01  1.8515E+00  9.4553E-01  2.7970E+00
  6.0300E-01  1.8523E+00  9.4410E-01  2.7964E+00
  6.0400E-01  1.8530E+00  9.4266E-01  2.7957E+00
  6.0500E-01  1.8538E+00  9.4120E-01  2.7950E+00
  6.0600E-01  1.8545E+00  9.3973E-01  2.7942E+00
  6.0700E-01  1.8552E+00  9.3824E-01  2.7935E+00
  6.0800E-01  1.8559E+00  9.3675E-01  2.7927E+00
  6.0900E-01  1.8559E+00  9.3537E-01  2.7913E+00
  6.1000E-01  1.8559E+00  9.3398E-01  2.7899E+00
  6.1100E-01  1.8559E+00  9.3258E-01  2.7885E+00
  6.1200E-01  1.8558E+00  9.3116E-01  2.7870E+00
  6.1300E-01  1.8558E+00  9.2972E-01  2.7855E+00
  6.1400E-01  1.8557E+00  9.2827E-01  2.7840E+00
  6.1500E-01  1.8556E+00  9.2681E-01  2.7824E+00
  6.1600E-01  1.8554E+00  9.2533E-01  2.7808E+00
  6.1700E-01  1.8553E+00  9.2384E-01  2.7791E+00
  6.1800E-01  1.8550E+00  9.2236E-01  2.7773E+00
  6.1900E-01  1.8541E+00  9.2098E-01  2.7751E+00
  6.2000E-01  1.8532E+00  9.1958E-01  2.7727E+00
  6.2100E-01  1.8522E+00  9.1817E-01  2.7704E+00
  6.2200E-01  1.8512E+00  9.1674E-01  2.7680E+00
  6.2300E-01  1.8502E+00  9.1530E-01  2.7655E+00
  6.2400E-01  1.8492E+00  9.1385E-01  2.7630E+00
  6.2500E-01  1.8481E+00  9.1238E-01  2.7605E+00
  6.2600E-01  1.8470E+00  9.1090E-01  2.7579E+00
  6.2700E-01  1.8458E+00  9.0940E-01  2.7552E+00
  6.2800E-01  1.8445E+00  9.0791E-01  2.7524E+00
  6.2900E-01  1.8426E+00  9.0649E-01  2.7491E+00
  6.3000E-01  1.8406E+00  9.0505E-01  2.7457E+00
  6.3100E-01  1.8386E+00  9.0360E-01  2.7422E+00
  6.3200E-01  1.8365E+00  9.0213E-01  2.7387E+00
  6.3300E-01  1.8344E+00  9.0065E-01  2.7351E+00
  6.3400E-01  1.8323E+00  8.9916E-01  2.7314E+00
  6.3500E-01  1.8301E+00  8.9765E-01  2.7277E+00
  6.3600E-01  1.8278E+00  8.9613E-01  2.7239E+00
  6.3700E-01  1.8255E+00  8.9459E-01  2.7201E+00
  6.3800E-01  1.8230E+00  8.9304E-01  2.7161E+00
  6.3900E-01  1.8197E+00  8.9156E-01  2.7113E+00
  6.4000E-01  1.8163E+00  8.9007E-01  2.7064E+00
  6.4100E-01  1.8129E+00  8.8856E-01  2.7014E+00
  6.4200E-01  1.8093E+00  8.8704E-01  2.6964E+00
  6.4300E-01  1.8057E+00  8.8551E-01  2.6912E+00
  6.4400E-01  1.8021E+00  8.8395E-01  2.6860E+00
  6.4500E-01  1.7983E+00  8.8239E-01  2.6807E+00
  6.4600E-01  1.7945E+00  8.8081E-01  2.6753E+00
  6.4700E-01  1.7906E+00  8.7921E-01  2.6698E+00
  6.4800E-01  1.7866E+00  8.7760E-01  2.6642E+00
  6.4900E-01  1.7815E+00  8.7606E-01  2.6575E+00
  6.5000E-01  1.7759E+00  8.7454E-01  2.6504E+00
  6.5100E-01  1.7702E+00  8.7300E-01  2.6432E+00
  6.5200E-01  1.7645E+00  8.7145E-01  2.6359E+00
  6.5300E-01  1.7586E+00  8.6988E-01  2.6285E+00
  6.5400E-01  1.7526E+00  8.6830E-01  2.6209E+00
  6.5500E-01  1.7466E+00  8.6670E-01  2.6133E+00
  6.5600E-01  1.7404E+00  8.6509E-01  2.6055E+00
  6.5700E-01  1.7341E+00  8.6347E-01  2.5976E+00
  6.5800E-01  1.7277E+00  8.6182E-01  2.5895E+00
  6.5900E-01  1.7205E+00  8.6021E-01  2.5807E+00
  6.6000E-01  1.7115E+00  8.5870E-01  2.5702E+00
  6.6100E-01  1.7023E+00  8.5718E-01  2.5594E+00
  6.6200E-01  1.6929E+00  8.5564E-01  2.5485E+00
  6.6300E-01  1.6834E+00  8.5409E-01  2.5375E+00
  6.6400E-01  1.6738E+00  8.5252E-01  2.5263E+00
  6.6500E-01  1.6640E+00  8.5094E-01  2.5149E+00
  6.6600E-01  1.6540E+00  8.4935E-01  2.5034E+00
  6.6700E-01  1.6439E+00  8.4774E-01  2.4916E+00
  6.6800E-01  1.6336E+00  8.4612E-01  2.4798E+00
  6.6900E-01  1.6232E+00  8.4448E-01  2.4677E+00
  6.7000E-01  1.6096E+00  8.4299E-01  2.4526E+00
  6.7100E-01  1.5941E+00  8.4159E-01  2.4357E+00
  6.7200E-01  1.5784E+00  8.4017E-01  2.4185E+00
  6.7300E-01  1.5624E+00  8.3875E-01  2.4011E+00
  6.7400E-01  1.5462E+00  8.3731E-01  2.3835E+00
  6.7500E-01  1.5298E+00  8.3585E-01  2.3657E+00
  6.7600E-01  1.5132E+00  8.3439E-01  2.3476E+00
  6.7700E-01  1.4963E+00  8.3291E-01  2.3293E+00
  6.7800E-01  1.4793E+00  8.3142E-01  2.3107E+00
  6.7900E-01  1.4621E+00  8.2992E-01  2.2920E+00
  6.8000E-01  1.4446E+00  8.2841E-01  2.2730E+00
  6.8100E-01  1.4194E+00  8.2706E-01  2.2465E+00
  6.8200E-01  1.3922E+00  8.2574E-01  2.2179E+00
  6.8300E-01  1.3646E+00  8.2441E-01  2.1890E+00
  6.8400E-01  1.3368E+00  8.2307E-01  2.1599E+00
  6.8500E-01  1.3088E+00  8.2172E-01  2.1305E+00
  6.8600E-01  1.2805E+00  8.2035E-01  2.1008E+00
  6.8700E-01  1.2520E+00  8.1898E-01  2.0710E+00
  6.8800E-01  1.2233E+00  8.1759E-01  2.0409E+00
  6.8900E-01  1.1945E+00  8.1620E-01  2.0107E+00
  6.9000E-01  1.1656E+00  8.1479E-01  1.9804E+00
  6.9100E-01  1.1178E+00  8.0176E-01  1.9196E+00
  6.9200E-01  1.0578E+00  8.0812E-01  1.8659E+00
  6.9300E-01  9.9752E-01  7.9956E-01  1.7971E+00
  6.9400E-01  9.5290E-01  8.0124E-01  1.7541E+00
  6.9500E-01  8.8207E-01  8.0824E-01  1.6903E+00
  6.9600E-01  8.1300E-01  8.0082E-01  1.6138E+00
  6.9700E-01  7.3569E-01  8.0255E-01  1.5382E+00
  6.9800E-01  6.5423E-01  7.9985E-01  1.4541E+00
  6.9900E-01  5.6165E-01  8.0181E-01  1.3635E+00
  7.0000E-01  4.6000E-01  7.9686E-01  1.2569E+00
  7.0100E-01  3.6784E-01  8.1058E-01  1.1784E+00
  7.0200E-01  2.7373E-01  8.0565E-01  1.0794E+00
  7.0300E-01  2.5098E-01  8.2499E-01  1.0760E+00
  7.0400E-01  3.9022E-01  8.5446E-01  1.2447E+00
  7.0500E-01  9.7242E-01  9.3598E-01  1.9084E+00
  7.0600E-01  1.3594E+00  1.1886E+00  2.5480E+00
  7.0700E-01  1.1237E+00  1.2226E+00  2.3463E+00
  7.0800E-01  1.2158E+00  1.2451E+00  2.4609E+00
  7.0900E-01  1.2443E+00  1.2376E+00  2.4819E+00
  7.1000E-01  1.3093E+00  1.2167E+00  2.5260E+00
  7.1100E-01  1.3508E+00  1.1992E+00  2.5500E+00
  7.1200E-01  1.4127E+00  1.1789E+00  2.5916E+00
  7.1300E-01  1.4859E+00  1.1460E+00  2.6318E+00
  7.1400E-01  1.4791E+00  1.1251E+00  2.6042E+00
  7.1500E-01  1.4531E+00  1.1129E+00  2.5660E+00
  7.1600E-01  1.4304E+00  1.0908E+00  2.5212E+00
  7.1700E-01  1.3215E+00  1.0708E+00  2.3922E+00
  7.1800E-01  1.0842E+00  1.0881E+00  2.1723E+00
  7.1900E-01  9.2635E-01  1.1621E+00  2.0885E+00
  7.2000E-01  1.1529E+00  1.1920E+00  2.3449E+00
  7.2100E-01  1.1686E+00  1.2066E+00  2.3751E+00
  7.2200E-01  1.2958E+00  1.1970E+00  2.4928E+00
  7.2300E-01  1.4223E+00  1.1679E+00  2.5902E+00
  7.2400E-01  1.5084E+00  1.1324E+00  2.6408E+00
  7.2500E-01  1.5369E+00  1.1068E+00  2.6437E+00
  7.2600E-01  1.5203E+00  1.0924E+00  2.6127E+00
  7.2700E-01  1.4936E+00  1.0873E+00  2.5809E+00
  7.2800E-01  1.4698E+00  1.0841E+00  2.5539E+00
  7.2900E-01  1.4515E+00  1.0782E+00  2.5297E+00
  7.3000E-01  1.4284E+00  1.0717E+00  2.5001E+00
  7.3100E-01  1.3814E+00  1.0744E+00  2.4558E+00
  7.3200E-01  1.3357E+00  1.0770E+00  2.4127E+00
  7.3300E-01  1.3041E+00  1.0875E+00  2.3916E+00
  7.3400E-01  1.2749E+00  1.0942E+00  2.3691E+00
  7.3500E-01  1.2585E+00  1.1004E+00  2.3589E+00
  7.3600E-01  1.2449E+00  1.1066E+00  2.3515E+00
  7.3700E-01  1.2338E+00  1.1114E+00  2.3452E+00
  7.3800E-01  1.2253E+00  1.1173E+00  2.3426E+00
  7.3900E-01  1.2210E+00  1.1215E+00  2.3425E+00
  7.4000E-01  1.2174E+00  1.1263E+00  2.3438E+00
  7.4100E-01  1.2202E+00  1.1299E+00  2.3501E+00
  7.4200E-01  1.2226E+00  1.1327E+00  2.3553E+00
  7.4300E-01  1.2266E+00  1.1364E+00  2.3631E+00
  7.4400E-01  1.2295E+00  1.1387E+00  2.3683E+00
  7.4500E-01  1.2391E+00  1.1401E+00  2.3792E+00
  7.4600E-01  1.2471E+00  1.1411E+00  2.3882E+00
  7.4700E-01  1.2527E+00  1.1418E+00  2.3945E+00
  7.4800E-01  1.2635E+00  1.1416E+00  2.4051E+00
  7.4900E-01  1.2684E+00  1.1421E+00  2.4105E+00
  7.5000E-01  1.2763E+00  1.1413E+00  2.4175E+00
  7.5100E-01  1.2810E+00  1.1407E+00  2.4216E+00
  7.5200E-01  1.2857E+00  1.1400E+00  2.4258E+00
  7.5300E-01  1.2905E+00  1.1394E+00  2.4300E+00
  7.5400E-01  1.2954E+00  1.1388E+00  2.4342E+00
  7.5500E-01  1.3002E+00  1.1382E+00  2.4384E+00
  7.5600E-01  1.3051E+00  1.1375E+00  2.4427E+00
  7.5700E-01  1.3101E+00  1.1369E+00  2.4470E+00
  7.5800E-01  1.3151E+00  1.1362E+00  2.4513E+00
  7.5900E-01  1.3201E+00  1.1356E+00  2.4557E+00
  7.6000E-01  1.3252E+00  1.1349E+00  2.4601E+00
  7.6100E-01  1.3303E+00  1.1343E+00  2.4646E+00
  7.6200E-01  1.3335E+00  1.1336E+00  2.4671E+00
  7.6300E-01  1.3366E+00  1.1330E+00  2.4696E+00
  7.6400E-01  1.3397E+00  1.1324E+00  2.4721E+00
  7.6500E-01  1.3429E+00  1.1317E+00  2.4746E+00
  7.6600E-01  1.3461E+00  1.1311E+00  2.4772E+00
  7.6700E-01  1.3493E+00  1.1304E+00  2.4797E+00
  7.6800E-01  1.3526E+00  1.1298E+00  2.4823E+00
  7.6900E-01  1.3559E+00  1.1291E+00  2.4850E+00
  7.7000E-01  1.3592E+00  1.1284E+00  2.4876E+00
  7.7100E-01  1.3625E+00  1.1277E+00  2.4902E+00
  7.7200E-01  1.3659E+00  1.1270E+00  2.4929E+00
  7.7300E-01  1.3693E+00  1.1263E+00  2.4956E+00
  7.7400E-01  1.3720E+00  1.1257E+00  2.4977E+00
  7.7500E-01  1.3745E+00  1.1250E+00  2.4995E+00
  7.7600E-01  1.3769E+00  1.1244E+00  2.5013E+00
  7.7700E-01  1.3794E+00  1.1237E+00  2.5031E+00
  7.7800E-01  1.3819E+00  1.1231E+00  2.5050E+00
  7.7900E-01  1.3844E+00  1.1224E+00  2.5068E+00
  7.8000E-01  1.3869E+00  1.1217E+00  2.5087E+00
  7.8100E-01  1.3895E+00  1.1210E+00  2.5105E+00
  7.8200E-01  1.3921E+00  1.1203E+00  2.5124E+00
  7.8300E-01  1.3947E+00  1.1196E+00  2.5143E+00
  7.8400E-01  1.3973E+00  1.1189E+00  2.5162E+00
  7.8500E-01  1.4000E+00  1.1182E+00  2.5182E+00
  7.8600E-01  1.4025E+00  1.1175E+00  2.5200E+00
  7.8700E-01  1.4043E+00  1.1168E+00  2.5211E+00
  7.8800E-01  1.4060E+00  1.1162E+00  2.5222E+00
  7.8900E-01  1.4078E+00  1.1155E+00  2.5233E+00
  7.9000E-01  1.4096E+00  1.1149E+00  2.5245E+00
  7.9100E-01  1.4114E+00  1.1142E+00  2.5256E+00
  7.9200E-01  1.4132E+00  1.1135E+00  2.5267E+00
  7.9300E-01  1.4151E+00  1.1128E+00  2.5279E+00
  7.9400E-01  1.4169E+00  1.1121E+00  2.5290E+00
  7.9500E-01  1.4188E+00  1.1114E+00  2.5302E+00
  7.9600E-01  1.4207E+00  1.1107E+00  2.5314E+00
  7.9700E-01  1.4226E+00  1.1100E+00  2.5326E+00
  7.9800E-01  1.4245E+00  1.1093E+00  2.5337E+00
  7.9900E-01  1.4259E+00  1.1087E+00  2.5347E+00
