# GGADT v1.2.1
# =-=-=
# Total cross sections as a function of energy
# -----------------------------------
# Parameter values
# -----------------------------------
# a_eff:                               5.20968E-01 micron
# ephot_min:                           6.00000E-01kiloelectron-vo
# ephot_max:                           8.00000E-01kiloelectron-vo
# nephots:                                     200
# Material file:                                   hematite
# geometry:                                        ellipsoid
# angle_mode:                                      file
# angle_file:                                      angles
# ngrain:                                      128
# norientations:                                 1
# grain-axis-z:                        5.82801E-01 micron
# grain-axis-y:                        5.82801E-01 micron
# grain-axis-z:                        4.16286E-01 micron
# grid-width:                          1.16560E+00 micron
# axes-convention:                                 ddscat
# parameter_file_name:                             large_params_set.ini
# -----------------------------------
 # [ephot (kiloelectron-volt)] [Q_sca] [Q_abs] [Q_ext]
  6.0000E-01  1.8432E+00  1.0447E+00  2.8879E+00
  6.0100E-01  1.8460E+00  1.0436E+00  2.8895E+00
  6.0200E-01  1.8487E+00  1.0424E+00  2.8912E+00
  6.0300E-01  1.8515E+00  1.0412E+00  2.8928E+00
  6.0400E-01  1.8543E+00  1.0401E+00  2.8944E+00
  6.0500E-01  1.8572E+00  1.0389E+00  2.8960E+00
  6.0600E-01  1.8600E+00  1.0376E+00  2.8977E+00
  6.0700E-01  1.8629E+00  1.0364E+00  2.8993E+00
  6.0800E-01  1.8658E+00  1.0352E+00  2.9009E+00
  6.0900E-01  1.8682E+00  1.0340E+00  2.9023E+00
  6.1000E-01  1.8707E+00  1.0329E+00  2.9036E+00
  6.1100E-01  1.8733E+00  1.0317E+00  2.9050E+00
  6.1200E-01  1.8758E+00  1.0306E+00  2.9063E+00
  6.1300E-01  1.8783E+00  1.0294E+00  2.9077E+00
  6.1400E-01  1.8808E+00  1.0282E+00  2.9090E+00
  6.1500E-01  1.8834E+00  1.0269E+00  2.9103E+00
  6.1600E-01  1.8859E+00  1.0257E+00  2.9116E+00
  6.1700E-01  1.8885E+00  1.0245E+00  2.9129E+00
  6.1800E-01  1.8910E+00  1.0232E+00  2.9142E+00
  6.1900E-01  1.8931E+00  1.0221E+00  2.9151E+00
  6.2000E-01  1.8952E+00  1.0209E+00  2.9161E+00
  6.2100E-01  1.8974E+00  1.0197E+00  2.9171E+00
  6.2200E-01  1.8995E+00  1.0185E+00  2.9180E+00
  6.2300E-01  1.9016E+00  1.0173E+00  2.9189E+00
  6.2400E-01  1.9037E+00  1.0161E+00  2.9198E+00
  6.2500E-01  1.9058E+00  1.0148E+00  2.9206E+00
  6.2600E-01  1.9079E+00  1.0136E+00  2.9215E+00
  6.2700E-01  1.9100E+00  1.0123E+00  2.9223E+00
  6.2800E-01  1.9120E+00  1.0110E+00  2.9230E+00
  6.2900E-01  1.9136E+00  1.0098E+00  2.9234E+00
  6.3000E-01  1.9153E+00  1.0086E+00  2.9239E+00
  6.3100E-01  1.9169E+00  1.0074E+00  2.9242E+00
  6.3200E-01  1.9185E+00  1.0061E+00  2.9246E+00
  6.3300E-01  1.9200E+00  1.0048E+00  2.9249E+00
  6.3400E-01  1.9216E+00  1.0036E+00  2.9251E+00
  6.3500E-01  1.9231E+00  1.0023E+00  2.9253E+00
  6.3600E-01  1.9245E+00  1.0010E+00  2.9255E+00
  6.3700E-01  1.9260E+00  9.9965E-01  2.9256E+00
  6.3800E-01  1.9273E+00  9.9832E-01  2.9257E+00
  6.3900E-01  1.9282E+00  9.9705E-01  2.9253E+00
  6.4000E-01  1.9290E+00  9.9576E-01  2.9248E+00
  6.4100E-01  1.9298E+00  9.9446E-01  2.9242E+00
  6.4200E-01  1.9305E+00  9.9315E-01  2.9236E+00
  6.4300E-01  1.9311E+00  9.9182E-01  2.9230E+00
  6.4400E-01  1.9317E+00  9.9047E-01  2.9222E+00
  6.4500E-01  1.9322E+00  9.8911E-01  2.9214E+00
  6.4600E-01  1.9327E+00  9.8774E-01  2.9204E+00
  6.4700E-01  1.9331E+00  9.8635E-01  2.9195E+00
  6.4800E-01  1.9334E+00  9.8495E-01  2.9184E+00
  6.4900E-01  1.9330E+00  9.8361E-01  2.9166E+00
  6.5000E-01  1.9323E+00  9.8228E-01  2.9146E+00
  6.5100E-01  1.9315E+00  9.8093E-01  2.9125E+00
  6.5200E-01  1.9306E+00  9.7957E-01  2.9102E+00
  6.5300E-01  1.9296E+00  9.7820E-01  2.9078E+00
  6.5400E-01  1.9284E+00  9.7681E-01  2.9053E+00
  6.5500E-01  1.9272E+00  9.7541E-01  2.9026E+00
  6.5600E-01  1.9258E+00  9.7399E-01  2.8998E+00
  6.5700E-01  1.9243E+00  9.7255E-01  2.8969E+00
  6.5800E-01  1.9227E+00  9.7110E-01  2.8938E+00
  6.5900E-01  1.9204E+00  9.6968E-01  2.8901E+00
  6.6000E-01  1.9169E+00  9.6834E-01  2.8853E+00
  6.6100E-01  1.9132E+00  9.6699E-01  2.8802E+00
  6.6200E-01  1.9092E+00  9.6563E-01  2.8748E+00
  6.6300E-01  1.9050E+00  9.6425E-01  2.8693E+00
  6.6400E-01  1.9007E+00  9.6286E-01  2.8635E+00
  6.6500E-01  1.8961E+00  9.6145E-01  2.8575E+00
  6.6600E-01  1.8913E+00  9.6003E-01  2.8513E+00
  6.6700E-01  1.8862E+00  9.5859E-01  2.8448E+00
  6.6800E-01  1.8809E+00  9.5714E-01  2.8381E+00
  6.6900E-01  1.8754E+00  9.5568E-01  2.8311E+00
  6.7000E-01  1.8674E+00  9.5434E-01  2.8217E+00
  6.7100E-01  1.8576E+00  9.5308E-01  2.8107E+00
  6.7200E-01  1.8474E+00  9.5181E-01  2.7993E+00
  6.7300E-01  1.8369E+00  9.5053E-01  2.7874E+00
  6.7400E-01  1.8259E+00  9.4923E-01  2.7751E+00
  6.7500E-01  1.8145E+00  9.4792E-01  2.7624E+00
  6.7600E-01  1.8026E+00  9.4660E-01  2.7492E+00
  6.7700E-01  1.7904E+00  9.4527E-01  2.7357E+00
  6.7800E-01  1.7777E+00  9.4392E-01  2.7217E+00
  6.7900E-01  1.7647E+00  9.4256E-01  2.7072E+00
  6.8000E-01  1.7512E+00  9.4119E-01  2.6924E+00
  6.8100E-01  1.7306E+00  9.3996E-01  2.6705E+00
  6.8200E-01  1.7076E+00  9.3877E-01  2.6463E+00
  6.8300E-01  1.6838E+00  9.3756E-01  2.6214E+00
  6.8400E-01  1.6592E+00  9.3633E-01  2.5956E+00
  6.8500E-01  1.6339E+00  9.3510E-01  2.5690E+00
  6.8600E-01  1.6079E+00  9.3386E-01  2.5417E+00
  6.8700E-01  1.5811E+00  9.3261E-01  2.5137E+00
  6.8800E-01  1.5536E+00  9.3134E-01  2.4850E+00
  6.8900E-01  1.5255E+00  9.3006E-01  2.4556E+00
  6.9000E-01  1.4967E+00  9.2877E-01  2.4255E+00
  6.9100E-01  1.4541E+00  9.1677E-01  2.3709E+00
  6.9200E-01  1.3860E+00  9.2264E-01  2.3086E+00
  6.9300E-01  1.3233E+00  9.1473E-01  2.2381E+00
  6.9400E-01  1.2719E+00  9.1629E-01  2.1882E+00
  6.9500E-01  1.1868E+00  9.2275E-01  2.1095E+00
  6.9600E-01  1.1074E+00  9.1591E-01  2.0233E+00
  6.9700E-01  1.0122E+00  9.1750E-01  1.9297E+00
  6.9800E-01  9.1065E-01  9.1501E-01  1.8257E+00
  6.9900E-01  7.9060E-01  9.1682E-01  1.7074E+00
  7.0000E-01  6.5660E-01  9.1224E-01  1.5688E+00
  7.0100E-01  5.2876E-01  9.2491E-01  1.4537E+00
  7.0200E-01  3.9831E-01  9.2037E-01  1.3187E+00
  7.0300E-01  3.6421E-01  9.3809E-01  1.3023E+00
  7.0400E-01  5.5233E-01  9.6458E-01  1.5169E+00
  7.0500E-01  1.2287E+00  1.0346E+00  2.2632E+00
  7.0600E-01  1.3224E+00  1.2149E+00  2.5373E+00
  7.0700E-01  1.1805E+00  1.2345E+00  2.4151E+00
  7.0800E-01  1.2308E+00  1.2471E+00  2.4779E+00
  7.0900E-01  1.2469E+00  1.2430E+00  2.4898E+00
  7.1000E-01  1.2797E+00  1.2312E+00  2.5109E+00
  7.1100E-01  1.3068E+00  1.2211E+00  2.5279E+00
  7.1200E-01  1.3467E+00  1.2091E+00  2.5558E+00
  7.1300E-01  1.4143E+00  1.1888E+00  2.6031E+00
  7.1400E-01  1.4493E+00  1.1754E+00  2.6247E+00
  7.1500E-01  1.4591E+00  1.1673E+00  2.6264E+00
  7.1600E-01  1.4785E+00  1.1523E+00  2.6308E+00
  7.1700E-01  1.4378E+00  1.1383E+00  2.5762E+00
  7.1800E-01  1.2438E+00  1.1505E+00  2.3942E+00
  7.1900E-01  1.0608E+00  1.1989E+00  2.2597E+00
  7.2000E-01  1.2178E+00  1.2169E+00  2.4347E+00
  7.2100E-01  1.2175E+00  1.2254E+00  2.4429E+00
  7.2200E-01  1.2912E+00  1.2198E+00  2.5110E+00
  7.2300E-01  1.3667E+00  1.2025E+00  2.5692E+00
  7.2400E-01  1.4425E+00  1.1801E+00  2.6227E+00
  7.2500E-01  1.4937E+00  1.1632E+00  2.6569E+00
  7.2600E-01  1.5130E+00  1.1534E+00  2.6664E+00
  7.2700E-01  1.5111E+00  1.1499E+00  2.6610E+00
  7.2800E-01  1.5054E+00  1.1477E+00  2.6531E+00
  7.2900E-01  1.5046E+00  1.1436E+00  2.6482E+00
  7.3000E-01  1.5008E+00  1.1390E+00  2.6398E+00
  7.3100E-01  1.4715E+00  1.1409E+00  2.6124E+00
  7.3200E-01  1.4408E+00  1.1427E+00  2.5835E+00
  7.3300E-01  1.4100E+00  1.1500E+00  2.5600E+00
  7.3400E-01  1.3842E+00  1.1546E+00  2.5388E+00
  7.3500E-01  1.3672E+00  1.1589E+00  2.5261E+00
  7.3600E-01  1.3523E+00  1.1631E+00  2.5154E+00
  7.3700E-01  1.3403E+00  1.1663E+00  2.5066E+00
  7.3800E-01  1.3291E+00  1.1703E+00  2.4994E+00
  7.3900E-01  1.3224E+00  1.1730E+00  2.4954E+00
  7.4000E-01  1.3157E+00  1.1762E+00  2.4919E+00
  7.4100E-01  1.3143E+00  1.1785E+00  2.4928E+00
  7.4200E-01  1.3134E+00  1.1803E+00  2.4937E+00
  7.4300E-01  1.3126E+00  1.1827E+00  2.4953E+00
  7.4400E-01  1.3124E+00  1.1842E+00  2.4966E+00
  7.4500E-01  1.3173E+00  1.1851E+00  2.5023E+00
  7.4600E-01  1.3213E+00  1.1857E+00  2.5070E+00
  7.4700E-01  1.3240E+00  1.1862E+00  2.5102E+00
  7.4800E-01  1.3308E+00  1.1861E+00  2.5168E+00
  7.4900E-01  1.3332E+00  1.1864E+00  2.5196E+00
  7.5000E-01  1.3387E+00  1.1858E+00  2.5245E+00
  7.5100E-01  1.3421E+00  1.1854E+00  2.5275E+00
  7.5200E-01  1.3454E+00  1.1851E+00  2.5305E+00
  7.5300E-01  1.3488E+00  1.1847E+00  2.5335E+00
  7.5400E-01  1.3522E+00  1.1843E+00  2.5365E+00
  7.5500E-01  1.3556E+00  1.1839E+00  2.5394E+00
  7.5600E-01  1.3590E+00  1.1834E+00  2.5424E+00
  7.5700E-01  1.3624E+00  1.1830E+00  2.5455E+00
  7.5800E-01  1.3658E+00  1.1826E+00  2.5485E+00
  7.5900E-01  1.3693E+00  1.1822E+00  2.5515E+00
  7.6000E-01  1.3727E+00  1.1818E+00  2.5545E+00
  7.6100E-01  1.3762E+00  1.1813E+00  2.5575E+00
  7.6200E-01  1.3785E+00  1.1809E+00  2.5595E+00
  7.6300E-01  1.3809E+00  1.1805E+00  2.5614E+00
  7.6400E-01  1.3832E+00  1.1801E+00  2.5633E+00
  7.6500E-01  1.3856E+00  1.1797E+00  2.5653E+00
  7.6600E-01  1.3880E+00  1.1793E+00  2.5672E+00
  7.6700E-01  1.3904E+00  1.1789E+00  2.5692E+00
  7.6800E-01  1.3928E+00  1.1784E+00  2.5712E+00
  7.6900E-01  1.3952E+00  1.1780E+00  2.5732E+00
  7.7000E-01  1.3976E+00  1.1775E+00  2.5752E+00
  7.7100E-01  1.4001E+00  1.1771E+00  2.5772E+00
  7.7200E-01  1.4026E+00  1.1767E+00  2.5792E+00
  7.7300E-01  1.4051E+00  1.1762E+00  2.5813E+00
  7.7400E-01  1.4072E+00  1.1758E+00  2.5830E+00
  7.7500E-01  1.4092E+00  1.1753E+00  2.5845E+00
  7.7600E-01  1.4111E+00  1.1749E+00  2.5861E+00
  7.7700E-01  1.4131E+00  1.1745E+00  2.5876E+00
  7.7800E-01  1.4151E+00  1.1740E+00  2.5892E+00
  7.7900E-01  1.4172E+00  1.1736E+00  2.5908E+00
  7.8000E-01  1.4192E+00  1.1732E+00  2.5924E+00
  7.8100E-01  1.4213E+00  1.1727E+00  2.5940E+00
  7.8200E-01  1.4233E+00  1.1722E+00  2.5956E+00
  7.8300E-01  1.4254E+00  1.1718E+00  2.5972E+00
  7.8400E-01  1.4275E+00  1.1713E+00  2.5988E+00
  7.8500E-01  1.4297E+00  1.1708E+00  2.6005E+00
  7.8600E-01  1.4317E+00  1.1704E+00  2.6021E+00
  7.8700E-01  1.4333E+00  1.1699E+00  2.6033E+00
  7.8800E-01  1.4350E+00  1.1695E+00  2.6045E+00
  7.8900E-01  1.4366E+00  1.1691E+00  2.6057E+00
  7.9000E-01  1.4383E+00  1.1686E+00  2.6069E+00
  7.9100E-01  1.4400E+00  1.1682E+00  2.6081E+00
  7.9200E-01  1.4416E+00  1.1677E+00  2.6094E+00
  7.9300E-01  1.4434E+00  1.1673E+00  2.6106E+00
  7.9400E-01  1.4451E+00  1.1668E+00  2.6119E+00
  7.9500E-01  1.4468E+00  1.1663E+00  2.6132E+00
  7.9600E-01  1.4486E+00  1.1659E+00  2.6144E+00
  7.9700E-01  1.4504E+00  1.1654E+00  2.6157E+00
  7.9800E-01  1.4521E+00  1.1649E+00  2.6170E+00
  7.9900E-01  1.4535E+00  1.1645E+00  2.6180E+00
