# GGADT v1.2.1
# =-=-=
# Total cross sections as a function of energy
# -----------------------------------
# Parameter values
# -----------------------------------
# a_eff:                               4.25161E-01 micron
# ephot_min:                           6.00000E-01kiloelectron-vo
# ephot_max:                           8.00000E-01kiloelectron-vo
# nephots:                                     200
# Material file:                                   hematite
# geometry:                                        ellipsoid
# angle_mode:                                      random
# ngrain:                                      128
# norientations:                                 1
# grain-axis-z:                        4.75623E-01 micron
# grain-axis-y:                        4.75623E-01 micron
# grain-axis-z:                        3.39731E-01 micron
# grid-width:                          9.51246E-01 micron
# axes-convention:                                 ddscat
# parameter_file_name:                             large_params_random.ini
# -----------------------------------
 # [ephot (kiloelectron-volt)] [Q_sca] [Q_abs] [Q_ext]
  6.0000E-01  1.3167E+00  7.9721E-01  2.1139E+00
  6.0100E-01  1.3190E+00  7.9643E-01  2.1154E+00
  6.0200E-01  1.3213E+00  7.9565E-01  2.1169E+00
  6.0300E-01  1.3236E+00  7.9485E-01  2.1185E+00
  6.0400E-01  1.3260E+00  7.9404E-01  2.1200E+00
  6.0500E-01  1.3283E+00  7.9323E-01  2.1216E+00
  6.0600E-01  1.3307E+00  7.9240E-01  2.1231E+00
  6.0700E-01  1.3332E+00  7.9156E-01  2.1247E+00
  6.0800E-01  1.3356E+00  7.9072E-01  2.1263E+00
  6.0900E-01  1.3378E+00  7.8994E-01  2.1278E+00
  6.1000E-01  1.3401E+00  7.8916E-01  2.1293E+00
  6.1100E-01  1.3424E+00  7.8836E-01  2.1308E+00
  6.1200E-01  1.3447E+00  7.8756E-01  2.1323E+00
  6.1300E-01  1.3471E+00  7.8674E-01  2.1338E+00
  6.1400E-01  1.3494E+00  7.8592E-01  2.1353E+00
  6.1500E-01  1.3517E+00  7.8508E-01  2.1368E+00
  6.1600E-01  1.3541E+00  7.8424E-01  2.1384E+00
  6.1700E-01  1.3565E+00  7.8338E-01  2.1399E+00
  6.1800E-01  1.3589E+00  7.8253E-01  2.1414E+00
  6.1900E-01  1.3610E+00  7.8174E-01  2.1428E+00
  6.2000E-01  1.3633E+00  7.8093E-01  2.1442E+00
  6.2100E-01  1.3655E+00  7.8012E-01  2.1456E+00
  6.2200E-01  1.3677E+00  7.7929E-01  2.1470E+00
  6.2300E-01  1.3699E+00  7.7846E-01  2.1484E+00
  6.2400E-01  1.3721E+00  7.7762E-01  2.1498E+00
  6.2500E-01  1.3744E+00  7.7676E-01  2.1511E+00
  6.2600E-01  1.3766E+00  7.7590E-01  2.1525E+00
  6.2700E-01  1.3789E+00  7.7503E-01  2.1539E+00
  6.2800E-01  1.3811E+00  7.7416E-01  2.1552E+00
  6.2900E-01  1.3831E+00  7.7332E-01  2.1565E+00
  6.3000E-01  1.3852E+00  7.7248E-01  2.1577E+00
  6.3100E-01  1.3872E+00  7.7163E-01  2.1589E+00
  6.3200E-01  1.3893E+00  7.7077E-01  2.1601E+00
  6.3300E-01  1.3913E+00  7.6989E-01  2.1612E+00
  6.3400E-01  1.3934E+00  7.6901E-01  2.1624E+00
  6.3500E-01  1.3954E+00  7.6812E-01  2.1635E+00
  6.3600E-01  1.3974E+00  7.6722E-01  2.1646E+00
  6.3700E-01  1.3994E+00  7.6630E-01  2.1657E+00
  6.3800E-01  1.4014E+00  7.6538E-01  2.1668E+00
  6.3900E-01  1.4031E+00  7.6450E-01  2.1676E+00
  6.4000E-01  1.4049E+00  7.6361E-01  2.1685E+00
  6.4100E-01  1.4066E+00  7.6271E-01  2.1693E+00
  6.4200E-01  1.4082E+00  7.6180E-01  2.1700E+00
  6.4300E-01  1.4099E+00  7.6088E-01  2.1708E+00
  6.4400E-01  1.4115E+00  7.5994E-01  2.1714E+00
  6.4500E-01  1.4131E+00  7.5900E-01  2.1721E+00
  6.4600E-01  1.4146E+00  7.5805E-01  2.1727E+00
  6.4700E-01  1.4161E+00  7.5708E-01  2.1732E+00
  6.4800E-01  1.4176E+00  7.5611E-01  2.1737E+00
  6.4900E-01  1.4187E+00  7.5517E-01  2.1739E+00
  6.5000E-01  1.4197E+00  7.5425E-01  2.1739E+00
  6.5100E-01  1.4206E+00  7.5331E-01  2.1739E+00
  6.5200E-01  1.4214E+00  7.5236E-01  2.1738E+00
  6.5300E-01  1.4222E+00  7.5141E-01  2.1736E+00
  6.5400E-01  1.4228E+00  7.5044E-01  2.1733E+00
  6.5500E-01  1.4234E+00  7.4946E-01  2.1729E+00
  6.5600E-01  1.4240E+00  7.4847E-01  2.1724E+00
  6.5700E-01  1.4244E+00  7.4747E-01  2.1719E+00
  6.5800E-01  1.4248E+00  7.4646E-01  2.1712E+00
  6.5900E-01  1.4248E+00  7.4546E-01  2.1702E+00
  6.6000E-01  1.4241E+00  7.4453E-01  2.1686E+00
  6.6100E-01  1.4233E+00  7.4358E-01  2.1668E+00
  6.6200E-01  1.4223E+00  7.4263E-01  2.1649E+00
  6.6300E-01  1.4211E+00  7.4166E-01  2.1628E+00
  6.6400E-01  1.4198E+00  7.4069E-01  2.1605E+00
  6.6500E-01  1.4184E+00  7.3970E-01  2.1581E+00
  6.6600E-01  1.4167E+00  7.3871E-01  2.1554E+00
  6.6700E-01  1.4149E+00  7.3770E-01  2.1526E+00
  6.6800E-01  1.4130E+00  7.3668E-01  2.1496E+00
  6.6900E-01  1.4108E+00  7.3565E-01  2.1465E+00
  6.7000E-01  1.4071E+00  7.3472E-01  2.1419E+00
  6.7100E-01  1.4024E+00  7.3383E-01  2.1362E+00
  6.7200E-01  1.3973E+00  7.3294E-01  2.1302E+00
  6.7300E-01  1.3919E+00  7.3204E-01  2.1239E+00
  6.7400E-01  1.3861E+00  7.3112E-01  2.1173E+00
  6.7500E-01  1.3800E+00  7.3020E-01  2.1102E+00
  6.7600E-01  1.3736E+00  7.2927E-01  2.1029E+00
  6.7700E-01  1.3668E+00  7.2833E-01  2.0951E+00
  6.7800E-01  1.3597E+00  7.2739E-01  2.0870E+00
  6.7900E-01  1.3522E+00  7.2643E-01  2.0786E+00
  6.8000E-01  1.3443E+00  7.2546E-01  2.0698E+00
  6.8100E-01  1.3318E+00  7.2459E-01  2.0564E+00
  6.8200E-01  1.3175E+00  7.2375E-01  2.0413E+00
  6.8300E-01  1.3026E+00  7.2289E-01  2.0255E+00
  6.8400E-01  1.2869E+00  7.2203E-01  2.0089E+00
  6.8500E-01  1.2705E+00  7.2116E-01  1.9917E+00
  6.8600E-01  1.2534E+00  7.2028E-01  1.9737E+00
  6.8700E-01  1.2357E+00  7.1940E-01  1.9551E+00
  6.8800E-01  1.2172E+00  7.1850E-01  1.9357E+00
  6.8900E-01  1.1981E+00  7.1760E-01  1.9157E+00
  6.9000E-01  1.1783E+00  7.1669E-01  1.8950E+00
  6.9100E-01  1.1509E+00  7.0817E-01  1.8591E+00
  6.9200E-01  1.1009E+00  7.1234E-01  1.8132E+00
  6.9300E-01  1.0567E+00  7.0673E-01  1.7635E+00
  6.9400E-01  1.0186E+00  7.0783E-01  1.7264E+00
  6.9500E-01  9.5408E-01  7.1242E-01  1.6665E+00
  6.9600E-01  8.9504E-01  7.0756E-01  1.6026E+00
  6.9700E-01  8.2192E-01  7.0869E-01  1.5306E+00
  6.9800E-01  7.4335E-01  7.0692E-01  1.4503E+00
  6.9900E-01  6.4874E-01  7.0821E-01  1.3569E+00
  7.0000E-01  5.4215E-01  7.0495E-01  1.2471E+00
  7.0100E-01  4.3820E-01  7.1395E-01  1.1522E+00
  7.0200E-01  3.3190E-01  7.1073E-01  1.0426E+00
  7.0300E-01  3.0330E-01  7.2327E-01  1.0266E+00
  7.0400E-01  4.5521E-01  7.4190E-01  1.1971E+00
  7.0500E-01  9.6586E-01  7.9029E-01  1.7561E+00
  7.0600E-01  9.7183E-01  9.0833E-01  1.8802E+00
  7.0700E-01  8.8691E-01  9.2076E-01  1.8077E+00
  7.0800E-01  9.1816E-01  9.2908E-01  1.8472E+00
  7.0900E-01  9.2785E-01  9.2625E-01  1.8541E+00
  7.1000E-01  9.4708E-01  9.1864E-01  1.8657E+00
  7.1100E-01  9.6213E-01  9.1226E-01  1.8744E+00
  7.1200E-01  9.8473E-01  9.0470E-01  1.8894E+00
  7.1300E-01  1.0257E+00  8.9190E-01  1.9176E+00
  7.1400E-01  1.0535E+00  8.8337E-01  1.9369E+00
  7.1500E-01  1.0657E+00  8.7822E-01  1.9439E+00
  7.1600E-01  1.0865E+00  8.6859E-01  1.9551E+00
  7.1700E-01  1.0734E+00  8.5952E-01  1.9329E+00
  7.1800E-01  9.4879E-01  8.6739E-01  1.8162E+00
  7.1900E-01  8.1413E-01  8.9829E-01  1.7124E+00
  7.2000E-01  9.1296E-01  9.0961E-01  1.8226E+00
  7.2100E-01  9.1097E-01  9.1495E-01  1.8259E+00
  7.2200E-01  9.5453E-01  9.1145E-01  1.8660E+00
  7.2300E-01  9.9770E-01  9.0052E-01  1.8982E+00
  7.2400E-01  1.0442E+00  8.8639E-01  1.9306E+00
  7.2500E-01  1.0802E+00  8.7561E-01  1.9559E+00
  7.2600E-01  1.0990E+00  8.6928E-01  1.9683E+00
  7.2700E-01  1.1023E+00  8.6701E-01  1.9693E+00
  7.2800E-01  1.1021E+00  8.6560E-01  1.9677E+00
  7.2900E-01  1.1051E+00  8.6294E-01  1.9680E+00
  7.3000E-01  1.1066E+00  8.5996E-01  1.9665E+00
  7.3100E-01  1.0905E+00  8.6118E-01  1.9516E+00
  7.3200E-01  1.0728E+00  8.6238E-01  1.9352E+00
  7.3300E-01  1.0519E+00  8.6709E-01  1.9190E+00
  7.3400E-01  1.0349E+00  8.7008E-01  1.9050E+00
  7.3500E-01  1.0231E+00  8.7284E-01  1.8960E+00
  7.3600E-01  1.0126E+00  8.7551E-01  1.8881E+00
  7.3700E-01  1.0042E+00  8.7757E-01  1.8818E+00
  7.3800E-01  9.9591E-01  8.8010E-01  1.8760E+00
  7.3900E-01  9.9083E-01  8.8186E-01  1.8727E+00
  7.4000E-01  9.8555E-01  8.8387E-01  1.8694E+00
  7.4100E-01  9.8382E-01  8.8536E-01  1.8692E+00
  7.4200E-01  9.8255E-01  8.8651E-01  1.8691E+00
  7.4300E-01  9.8112E-01  8.8805E-01  1.8692E+00
  7.4400E-01  9.8039E-01  8.8899E-01  1.8694E+00
  7.4500E-01  9.8289E-01  8.8952E-01  1.8724E+00
  7.4600E-01  9.8493E-01  8.8994E-01  1.8749E+00
  7.4700E-01  9.8628E-01  8.9024E-01  1.8765E+00
  7.4800E-01  9.9017E-01  8.9016E-01  1.8803E+00
  7.4900E-01  9.9140E-01  8.9036E-01  1.8818E+00
  7.5000E-01  9.9475E-01  8.9000E-01  1.8847E+00
  7.5100E-01  9.9679E-01  8.8976E-01  1.8865E+00
  7.5200E-01  9.9883E-01  8.8952E-01  1.8883E+00
  7.5300E-01  1.0009E+00  8.8927E-01  1.8901E+00
  7.5400E-01  1.0029E+00  8.8901E-01  1.8919E+00
  7.5500E-01  1.0050E+00  8.8876E-01  1.8937E+00
  7.5600E-01  1.0070E+00  8.8850E-01  1.8955E+00
  7.5700E-01  1.0091E+00  8.8824E-01  1.8973E+00
  7.5800E-01  1.0111E+00  8.8797E-01  1.8991E+00
  7.5900E-01  1.0132E+00  8.8770E-01  1.9009E+00
  7.6000E-01  1.0152E+00  8.8743E-01  1.9026E+00
  7.6100E-01  1.0172E+00  8.8715E-01  1.9044E+00
  7.6200E-01  1.0187E+00  8.8690E-01  1.9056E+00
  7.6300E-01  1.0201E+00  8.8664E-01  1.9068E+00
  7.6400E-01  1.0216E+00  8.8638E-01  1.9079E+00
  7.6500E-01  1.0230E+00  8.8612E-01  1.9091E+00
  7.6600E-01  1.0245E+00  8.8585E-01  1.9103E+00
  7.6700E-01  1.0259E+00  8.8558E-01  1.9115E+00
  7.6800E-01  1.0274E+00  8.8531E-01  1.9127E+00
  7.6900E-01  1.0289E+00  8.8503E-01  1.9139E+00
  7.7000E-01  1.0304E+00  8.8475E-01  1.9151E+00
  7.7100E-01  1.0319E+00  8.8447E-01  1.9164E+00
  7.7200E-01  1.0334E+00  8.8418E-01  1.9176E+00
  7.7300E-01  1.0349E+00  8.8389E-01  1.9188E+00
  7.7400E-01  1.0362E+00  8.8361E-01  1.9199E+00
  7.7500E-01  1.0375E+00  8.8334E-01  1.9208E+00
  7.7600E-01  1.0387E+00  8.8307E-01  1.9218E+00
  7.7700E-01  1.0399E+00  8.8280E-01  1.9227E+00
  7.7800E-01  1.0412E+00  8.8252E-01  1.9237E+00
  7.7900E-01  1.0425E+00  8.8223E-01  1.9247E+00
  7.8000E-01  1.0437E+00  8.8195E-01  1.9257E+00
  7.8100E-01  1.0450E+00  8.8166E-01  1.9267E+00
  7.8200E-01  1.0463E+00  8.8137E-01  1.9277E+00
  7.8300E-01  1.0476E+00  8.8107E-01  1.9287E+00
  7.8400E-01  1.0490E+00  8.8077E-01  1.9297E+00
  7.8500E-01  1.0503E+00  8.8047E-01  1.9308E+00
  7.8600E-01  1.0516E+00  8.8017E-01  1.9317E+00
  7.8700E-01  1.0526E+00  8.7989E-01  1.9325E+00
  7.8800E-01  1.0537E+00  8.7962E-01  1.9333E+00
  7.8900E-01  1.0548E+00  8.7934E-01  1.9341E+00
  7.9000E-01  1.0559E+00  8.7905E-01  1.9349E+00
  7.9100E-01  1.0570E+00  8.7877E-01  1.9357E+00
  7.9200E-01  1.0581E+00  8.7848E-01  1.9366E+00
  7.9300E-01  1.0592E+00  8.7819E-01  1.9374E+00
  7.9400E-01  1.0603E+00  8.7789E-01  1.9382E+00
  7.9500E-01  1.0615E+00  8.7759E-01  1.9391E+00
  7.9600E-01  1.0626E+00  8.7729E-01  1.9399E+00
  7.9700E-01  1.0638E+00  8.7698E-01  1.9408E+00
  7.9800E-01  1.0649E+00  8.7667E-01  1.9416E+00
  7.9900E-01  1.0658E+00  8.7643E-01  1.9423E+00
