# GGADT v1.2.1
# =-=-=
# Total cross sections as a function of energy
# -----------------------------------
# Parameter values
# -----------------------------------
# a_eff:                               2.33548E-01 micron
# ephot_min:                           6.00000E-01kiloelectron-vo
# ephot_max:                           8.00000E-01kiloelectron-vo
# nephots:                                     200
# Material file:                                   hematite
# geometry:                                        ellipsoid
# angle_mode:                                      random
# ngrain:                                      128
# norientations:                                 1
# grain-axis-z:                        2.33548E-01 micron
# grain-axis-y:                        2.33548E-01 micron
# grain-axis-z:                        2.33548E-01 micron
# grid-width:                          4.67097E-01 micron
# axes-convention:                                 ddscat
# parameter_file_name:                             small_params.ini
# -----------------------------------
 # [ephot (kiloelectron-volt)] [Q_sca] [Q_abs] [Q_ext]
  6.0000E-01  1.2439E+00  6.6315E-01  1.9071E+00
  6.0100E-01  1.2431E+00  6.6191E-01  1.9050E+00
  6.0200E-01  1.2422E+00  6.6066E-01  1.9029E+00
  6.0300E-01  1.2414E+00  6.5939E-01  1.9008E+00
  6.0400E-01  1.2405E+00  6.5811E-01  1.8986E+00
  6.0500E-01  1.2396E+00  6.5683E-01  1.8964E+00
  6.0600E-01  1.2387E+00  6.5553E-01  1.8942E+00
  6.0700E-01  1.2377E+00  6.5421E-01  1.8920E+00
  6.0800E-01  1.2368E+00  6.5290E-01  1.8897E+00
  6.0900E-01  1.2352E+00  6.5169E-01  1.8869E+00
  6.1000E-01  1.2337E+00  6.5046E-01  1.8841E+00
  6.1100E-01  1.2321E+00  6.4923E-01  1.8813E+00
  6.1200E-01  1.2305E+00  6.4799E-01  1.8785E+00
  6.1300E-01  1.2289E+00  6.4673E-01  1.8756E+00
  6.1400E-01  1.2272E+00  6.4547E-01  1.8727E+00
  6.1500E-01  1.2256E+00  6.4419E-01  1.8698E+00
  6.1600E-01  1.2239E+00  6.4290E-01  1.8668E+00
  6.1700E-01  1.2222E+00  6.4160E-01  1.8638E+00
  6.1800E-01  1.2203E+00  6.4032E-01  1.8606E+00
  6.1900E-01  1.2180E+00  6.3911E-01  1.8572E+00
  6.2000E-01  1.2157E+00  6.3790E-01  1.8536E+00
  6.2100E-01  1.2134E+00  6.3668E-01  1.8501E+00
  6.2200E-01  1.2110E+00  6.3544E-01  1.8465E+00
  6.2300E-01  1.2086E+00  6.3420E-01  1.8428E+00
  6.2400E-01  1.2062E+00  6.3294E-01  1.8391E+00
  6.2500E-01  1.2038E+00  6.3168E-01  1.8354E+00
  6.2600E-01  1.2013E+00  6.3040E-01  1.8317E+00
  6.2700E-01  1.1988E+00  6.2911E-01  1.8279E+00
  6.2800E-01  1.1961E+00  6.2783E-01  1.8239E+00
  6.2900E-01  1.1930E+00  6.2661E-01  1.8196E+00
  6.3000E-01  1.1898E+00  6.2538E-01  1.8152E+00
  6.3100E-01  1.1866E+00  6.2413E-01  1.8108E+00
  6.3200E-01  1.1834E+00  6.2288E-01  1.8063E+00
  6.3300E-01  1.1802E+00  6.2161E-01  1.8018E+00
  6.3400E-01  1.1769E+00  6.2034E-01  1.7972E+00
  6.3500E-01  1.1736E+00  6.1905E-01  1.7926E+00
  6.3600E-01  1.1702E+00  6.1776E-01  1.7880E+00
  6.3700E-01  1.1668E+00  6.1645E-01  1.7833E+00
  6.3800E-01  1.1634E+00  6.1514E-01  1.7785E+00
  6.3900E-01  1.1592E+00  6.1388E-01  1.7730E+00
  6.4000E-01  1.1549E+00  6.1262E-01  1.7675E+00
  6.4100E-01  1.1507E+00  6.1134E-01  1.7620E+00
  6.4200E-01  1.1463E+00  6.1005E-01  1.7564E+00
  6.4300E-01  1.1420E+00  6.0876E-01  1.7507E+00
  6.4400E-01  1.1376E+00  6.0745E-01  1.7450E+00
  6.4500E-01  1.1332E+00  6.0613E-01  1.7393E+00
  6.4600E-01  1.1287E+00  6.0480E-01  1.7335E+00
  6.4700E-01  1.1242E+00  6.0346E-01  1.7276E+00
  6.4800E-01  1.1196E+00  6.0210E-01  1.7217E+00
  6.4900E-01  1.1141E+00  6.0082E-01  1.7149E+00
  6.5000E-01  1.1084E+00  5.9954E-01  1.7079E+00
  6.5100E-01  1.1025E+00  5.9825E-01  1.7008E+00
  6.5200E-01  1.0967E+00  5.9696E-01  1.6936E+00
  6.5300E-01  1.0908E+00  5.9565E-01  1.6864E+00
  6.5400E-01  1.0848E+00  5.9433E-01  1.6791E+00
  6.5500E-01  1.0788E+00  5.9300E-01  1.6718E+00
  6.5600E-01  1.0727E+00  5.9166E-01  1.6644E+00
  6.5700E-01  1.0666E+00  5.9031E-01  1.6569E+00
  6.5800E-01  1.0604E+00  5.8895E-01  1.6494E+00
  6.5900E-01  1.0537E+00  5.8761E-01  1.6413E+00
  6.6000E-01  1.0456E+00  5.8636E-01  1.6320E+00
  6.6100E-01  1.0375E+00  5.8510E-01  1.6226E+00
  6.6200E-01  1.0292E+00  5.8383E-01  1.6131E+00
  6.6300E-01  1.0210E+00  5.8255E-01  1.6035E+00
  6.6400E-01  1.0126E+00  5.8126E-01  1.5939E+00
  6.6500E-01  1.0043E+00  5.7996E-01  1.5842E+00
  6.6600E-01  9.9581E-01  5.7865E-01  1.5745E+00
  6.6700E-01  9.8731E-01  5.7733E-01  1.5646E+00
  6.6800E-01  9.7876E-01  5.7599E-01  1.5548E+00
  6.6900E-01  9.7015E-01  5.7465E-01  1.5448E+00
  6.7000E-01  9.5933E-01  5.7344E-01  1.5328E+00
  6.7100E-01  9.4720E-01  5.7229E-01  1.5195E+00
  6.7200E-01  9.3502E-01  5.7113E-01  1.5061E+00
  6.7300E-01  9.2278E-01  5.6997E-01  1.4927E+00
  6.7400E-01  9.1049E-01  5.6879E-01  1.4793E+00
  6.7500E-01  8.9815E-01  5.6761E-01  1.4658E+00
  6.7600E-01  8.8576E-01  5.6642E-01  1.4522E+00
  6.7700E-01  8.7332E-01  5.6522E-01  1.4385E+00
  6.7800E-01  8.6084E-01  5.6401E-01  1.4248E+00
  6.7900E-01  8.4832E-01  5.6279E-01  1.4111E+00
  6.8000E-01  8.3576E-01  5.6156E-01  1.3973E+00
  6.8100E-01  8.1808E-01  5.6047E-01  1.3785E+00
  6.8200E-01  7.9920E-01  5.5940E-01  1.3586E+00
  6.8300E-01  7.8033E-01  5.5832E-01  1.3387E+00
  6.8400E-01  7.6148E-01  5.5724E-01  1.3187E+00
  6.8500E-01  7.4266E-01  5.5615E-01  1.2988E+00
  6.8600E-01  7.2387E-01  5.5505E-01  1.2789E+00
  6.8700E-01  7.0514E-01  5.5394E-01  1.2591E+00
  6.8800E-01  6.8647E-01  5.5283E-01  1.2393E+00
  6.8900E-01  6.6786E-01  5.5171E-01  1.2196E+00
  6.9000E-01  6.4934E-01  5.5057E-01  1.1999E+00
  6.9100E-01  6.1688E-01  5.4015E-01  1.1570E+00
  6.9200E-01  5.8155E-01  5.4523E-01  1.1268E+00
  6.9300E-01  5.4368E-01  5.3840E-01  1.0821E+00
  6.9400E-01  5.1749E-01  5.3974E-01  1.0572E+00
  6.9500E-01  4.7698E-01  5.4532E-01  1.0223E+00
  6.9600E-01  4.3596E-01  5.3941E-01  9.7537E-01
  6.9700E-01  3.9212E-01  5.4078E-01  9.3290E-01
  6.9800E-01  3.4610E-01  5.3864E-01  8.8474E-01
  6.9900E-01  2.9511E-01  5.4019E-01  8.3530E-01
  7.0000E-01  2.3951E-01  5.3626E-01  7.7577E-01
  7.0100E-01  1.9093E-01  5.4720E-01  7.3813E-01
  7.0200E-01  1.4094E-01  5.4326E-01  6.8419E-01
  7.0300E-01  1.2968E-01  5.5879E-01  6.8847E-01
  7.0400E-01  2.0537E-01  5.8286E-01  7.8823E-01
  7.0500E-01  5.5560E-01  6.5222E-01  1.2078E+00
  7.0600E-01  1.0525E+00  9.1302E-01  1.9655E+00
  7.0700E-01  8.1706E-01  9.5902E-01  1.7761E+00
  7.0800E-01  9.4880E-01  9.9176E-01  1.9406E+00
  7.0900E-01  9.8813E-01  9.8066E-01  1.9688E+00
  7.1000E-01  1.0614E+00  9.5079E-01  2.0122E+00
  7.1100E-01  1.0736E+00  9.2696E-01  2.0005E+00
  7.1200E-01  1.1126E+00  9.0068E-01  2.0133E+00
  7.1300E-01  1.1302E+00  8.6095E-01  1.9911E+00
  7.1400E-01  1.0750E+00  8.3720E-01  1.9122E+00
  7.1500E-01  1.0257E+00  8.2372E-01  1.8494E+00
  7.1600E-01  9.7585E-01  8.0007E-01  1.7759E+00
  7.1700E-01  8.6037E-01  7.7931E-01  1.6397E+00
  7.1800E-01  6.8219E-01  7.9723E-01  1.4794E+00
  7.1900E-01  5.9877E-01  8.8010E-01  1.4789E+00
  7.2000E-01  8.1324E-01  9.1748E-01  1.7307E+00
  7.2100E-01  8.4594E-01  9.3683E-01  1.7828E+00
  7.2200E-01  9.8053E-01  9.2402E-01  1.9045E+00
  7.2300E-01  1.0925E+00  8.8710E-01  1.9796E+00
  7.2400E-01  1.1289E+00  8.4539E-01  1.9743E+00
  7.2500E-01  1.1140E+00  8.1714E-01  1.9311E+00
  7.2600E-01  1.0713E+00  8.0170E-01  1.8730E+00
  7.2700E-01  1.0357E+00  7.9635E-01  1.8320E+00
  7.2800E-01  1.0076E+00  7.9307E-01  1.8007E+00
  7.2900E-01  9.8338E-01  7.8696E-01  1.7703E+00
  7.3000E-01  9.5534E-01  7.8029E-01  1.7356E+00
  7.3100E-01  9.1506E-01  7.8300E-01  1.6981E+00
  7.3200E-01  8.7707E-01  7.8571E-01  1.6628E+00
  7.3300E-01  8.5772E-01  7.9654E-01  1.6543E+00
  7.3400E-01  8.3766E-01  8.0360E-01  1.6413E+00
  7.3500E-01  8.2825E-01  8.1027E-01  1.6385E+00
  7.3600E-01  8.2120E-01  8.1689E-01  1.6381E+00
  7.3700E-01  8.1528E-01  8.2208E-01  1.6374E+00
  7.3800E-01  8.1241E-01  8.2858E-01  1.6410E+00
  7.3900E-01  8.1184E-01  8.3317E-01  1.6450E+00
  7.4000E-01  8.1249E-01  8.3854E-01  1.6510E+00
  7.4100E-01  8.1772E-01  8.4255E-01  1.6603E+00
  7.4200E-01  8.2213E-01  8.4572E-01  1.6678E+00
  7.4300E-01  8.2887E-01  8.4998E-01  1.6788E+00
  7.4400E-01  8.3349E-01  8.5261E-01  1.6861E+00
  7.4500E-01  8.4338E-01  8.5412E-01  1.6975E+00
  7.4600E-01  8.5165E-01  8.5531E-01  1.7070E+00
  7.4700E-01  8.5756E-01  8.5618E-01  1.7137E+00
  7.4800E-01  8.6753E-01  8.5595E-01  1.7235E+00
  7.4900E-01  8.7262E-01  8.5651E-01  1.7291E+00
  7.5000E-01  8.7925E-01  8.5550E-01  1.7347E+00
  7.5100E-01  8.8315E-01  8.5480E-01  1.7379E+00
  7.5200E-01  8.8708E-01  8.5410E-01  1.7412E+00
  7.5300E-01  8.9106E-01  8.5340E-01  1.7445E+00
  7.5400E-01  8.9509E-01  8.5269E-01  1.7478E+00
  7.5500E-01  8.9915E-01  8.5197E-01  1.7511E+00
  7.5600E-01  9.0326E-01  8.5124E-01  1.7545E+00
  7.5700E-01  9.0740E-01  8.5050E-01  1.7579E+00
  7.5800E-01  9.1160E-01  8.4976E-01  1.7614E+00
  7.5900E-01  9.1583E-01  8.4901E-01  1.7648E+00
  7.6000E-01  9.2011E-01  8.4825E-01  1.7684E+00
  7.6100E-01  9.2443E-01  8.4749E-01  1.7719E+00
  7.6200E-01  9.2689E-01  8.4678E-01  1.7737E+00
  7.6300E-01  9.2929E-01  8.4607E-01  1.7754E+00
  7.6400E-01  9.3171E-01  8.4536E-01  1.7771E+00
  7.6500E-01  9.3415E-01  8.4463E-01  1.7788E+00
  7.6600E-01  9.3661E-01  8.4390E-01  1.7805E+00
  7.6700E-01  9.3910E-01  8.4316E-01  1.7823E+00
  7.6800E-01  9.4161E-01  8.4242E-01  1.7840E+00
  7.6900E-01  9.4415E-01  8.4167E-01  1.7858E+00
  7.7000E-01  9.4670E-01  8.4091E-01  1.7876E+00
  7.7100E-01  9.4929E-01  8.4014E-01  1.7894E+00
  7.7200E-01  9.5189E-01  8.3936E-01  1.7913E+00
  7.7300E-01  9.5452E-01  8.3858E-01  1.7931E+00
  7.7400E-01  9.5656E-01  8.3784E-01  1.7944E+00
  7.7500E-01  9.5827E-01  8.3712E-01  1.7954E+00
  7.7600E-01  9.6000E-01  8.3639E-01  1.7964E+00
  7.7700E-01  9.6174E-01  8.3566E-01  1.7974E+00
  7.7800E-01  9.6350E-01  8.3492E-01  1.7984E+00
  7.7900E-01  9.6527E-01  8.3417E-01  1.7994E+00
  7.8000E-01  9.6706E-01  8.3342E-01  1.8005E+00
  7.8100E-01  9.6886E-01  8.3265E-01  1.8015E+00
  7.8200E-01  9.7068E-01  8.3189E-01  1.8026E+00
  7.8300E-01  9.7251E-01  8.3111E-01  1.8036E+00
  7.8400E-01  9.7436E-01  8.3033E-01  1.8047E+00
  7.8500E-01  9.7623E-01  8.2953E-01  1.8058E+00
  7.8600E-01  9.7799E-01  8.2875E-01  1.8067E+00
  7.8700E-01  9.7900E-01  8.2804E-01  1.8070E+00
  7.8800E-01  9.8003E-01  8.2732E-01  1.8073E+00
  7.8900E-01  9.8106E-01  8.2660E-01  1.8077E+00
  7.9000E-01  9.8210E-01  8.2587E-01  1.8080E+00
  7.9100E-01  9.8314E-01  8.2513E-01  1.8083E+00
  7.9200E-01  9.8420E-01  8.2439E-01  1.8086E+00
  7.9300E-01  9.8526E-01  8.2364E-01  1.8089E+00
  7.9400E-01  9.8632E-01  8.2288E-01  1.8092E+00
  7.9500E-01  9.8740E-01  8.2212E-01  1.8095E+00
  7.9600E-01  9.8849E-01  8.2135E-01  1.8098E+00
  7.9700E-01  9.8958E-01  8.2057E-01  1.8102E+00
  7.9800E-01  9.9068E-01  8.1979E-01  1.8105E+00
  7.9900E-01  9.9152E-01  8.1920E-01  1.8107E+00
