# GGADT v1.2.1
# =-=-=
# Total cross sections as a function of energy
# -----------------------------------
# Parameter values
# -----------------------------------
# a_eff:                               7.44516E-01 micron
# ephot_min:                           6.00000E-01kiloelectron-vo
# ephot_max:                           8.00000E-01kiloelectron-vo
# nephots:                                     200
# Material file:                                   hematite
# geometry:                                        ellipsoid
# angle_mode:                                      random
# ngrain:                                      128
# norientations:                                 1
# grain-axis-z:                        8.32882E-01 micron
# grain-axis-y:                        8.32882E-01 micron
# grain-axis-z:                        5.94916E-01 micron
# grid-width:                          1.66576E+00 micron
# axes-convention:                                 ddscat
# parameter_file_name:                             large_params_random.ini
# -----------------------------------
 # [ephot (kiloelectron-volt)] [Q_sca] [Q_abs] [Q_ext]
  6.0000E-01  1.3159E+00  1.0626E+00  2.3786E+00
  6.0100E-01  1.3175E+00  1.0620E+00  2.3795E+00
  6.0200E-01  1.3190E+00  1.0614E+00  2.3804E+00
  6.0300E-01  1.3206E+00  1.0607E+00  2.3814E+00
  6.0400E-01  1.3223E+00  1.0601E+00  2.3824E+00
  6.0500E-01  1.3240E+00  1.0594E+00  2.3834E+00
  6.0600E-01  1.3257E+00  1.0588E+00  2.3844E+00
  6.0700E-01  1.3274E+00  1.0581E+00  2.3855E+00
  6.0800E-01  1.3292E+00  1.0574E+00  2.3866E+00
  6.0900E-01  1.3310E+00  1.0568E+00  2.3878E+00
  6.1000E-01  1.3329E+00  1.0561E+00  2.3891E+00
  6.1100E-01  1.3349E+00  1.0555E+00  2.3904E+00
  6.1200E-01  1.3369E+00  1.0548E+00  2.3917E+00
  6.1300E-01  1.3389E+00  1.0541E+00  2.3931E+00
  6.1400E-01  1.3410E+00  1.0535E+00  2.3944E+00
  6.1500E-01  1.3431E+00  1.0528E+00  2.3959E+00
  6.1600E-01  1.3452E+00  1.0521E+00  2.3973E+00
  6.1700E-01  1.3474E+00  1.0514E+00  2.3988E+00
  6.1800E-01  1.3497E+00  1.0507E+00  2.4003E+00
  6.1900E-01  1.3520E+00  1.0500E+00  2.4020E+00
  6.2000E-01  1.3544E+00  1.0493E+00  2.4037E+00
  6.2100E-01  1.3568E+00  1.0487E+00  2.4055E+00
  6.2200E-01  1.3593E+00  1.0480E+00  2.4073E+00
  6.2300E-01  1.3618E+00  1.0473E+00  2.4091E+00
  6.2400E-01  1.3644E+00  1.0466E+00  2.4110E+00
  6.2500E-01  1.3670E+00  1.0459E+00  2.4129E+00
  6.2600E-01  1.3696E+00  1.0451E+00  2.4148E+00
  6.2700E-01  1.3724E+00  1.0444E+00  2.4168E+00
  6.2800E-01  1.3751E+00  1.0437E+00  2.4188E+00
  6.2900E-01  1.3781E+00  1.0430E+00  2.4211E+00
  6.3000E-01  1.3811E+00  1.0423E+00  2.4233E+00
  6.3100E-01  1.3841E+00  1.0415E+00  2.4256E+00
  6.3200E-01  1.3872E+00  1.0408E+00  2.4280E+00
  6.3300E-01  1.3903E+00  1.0401E+00  2.4304E+00
  6.3400E-01  1.3935E+00  1.0393E+00  2.4328E+00
  6.3500E-01  1.3968E+00  1.0386E+00  2.4353E+00
  6.3600E-01  1.4001E+00  1.0378E+00  2.4379E+00
  6.3700E-01  1.4034E+00  1.0370E+00  2.4404E+00
  6.3800E-01  1.4069E+00  1.0362E+00  2.4431E+00
  6.3900E-01  1.4105E+00  1.0355E+00  2.4460E+00
  6.4000E-01  1.4143E+00  1.0347E+00  2.4490E+00
  6.4100E-01  1.4181E+00  1.0339E+00  2.4520E+00
  6.4200E-01  1.4219E+00  1.0331E+00  2.4551E+00
  6.4300E-01  1.4259E+00  1.0323E+00  2.4582E+00
  6.4400E-01  1.4298E+00  1.0315E+00  2.4614E+00
  6.4500E-01  1.4339E+00  1.0307E+00  2.4646E+00
  6.4600E-01  1.4380E+00  1.0299E+00  2.4678E+00
  6.4700E-01  1.4421E+00  1.0291E+00  2.4712E+00
  6.4800E-01  1.4463E+00  1.0282E+00  2.4745E+00
  6.4900E-01  1.4508E+00  1.0274E+00  2.4782E+00
  6.5000E-01  1.4555E+00  1.0266E+00  2.4821E+00
  6.5100E-01  1.4602E+00  1.0258E+00  2.4859E+00
  6.5200E-01  1.4649E+00  1.0249E+00  2.4899E+00
  6.5300E-01  1.4697E+00  1.0241E+00  2.4938E+00
  6.5400E-01  1.4746E+00  1.0232E+00  2.4978E+00
  6.5500E-01  1.4795E+00  1.0224E+00  2.5018E+00
  6.5600E-01  1.4844E+00  1.0215E+00  2.5059E+00
  6.5700E-01  1.4894E+00  1.0206E+00  2.5100E+00
  6.5800E-01  1.4944E+00  1.0197E+00  2.5141E+00
  6.5900E-01  1.4996E+00  1.0188E+00  2.5184E+00
  6.6000E-01  1.5051E+00  1.0180E+00  2.5231E+00
  6.6100E-01  1.5107E+00  1.0171E+00  2.5279E+00
  6.6200E-01  1.5163E+00  1.0163E+00  2.5326E+00
  6.6300E-01  1.5219E+00  1.0154E+00  2.5373E+00
  6.6400E-01  1.5275E+00  1.0145E+00  2.5420E+00
  6.6500E-01  1.5330E+00  1.0137E+00  2.5467E+00
  6.6600E-01  1.5385E+00  1.0128E+00  2.5513E+00
  6.6700E-01  1.5440E+00  1.0118E+00  2.5558E+00
  6.6800E-01  1.5494E+00  1.0109E+00  2.5603E+00
  6.6900E-01  1.5548E+00  1.0100E+00  2.5648E+00
  6.7000E-01  1.5605E+00  1.0091E+00  2.5697E+00
  6.7100E-01  1.5663E+00  1.0083E+00  2.5746E+00
  6.7200E-01  1.5718E+00  1.0075E+00  2.5794E+00
  6.7300E-01  1.5771E+00  1.0067E+00  2.5838E+00
  6.7400E-01  1.5822E+00  1.0059E+00  2.5881E+00
  6.7500E-01  1.5870E+00  1.0050E+00  2.5920E+00
  6.7600E-01  1.5915E+00  1.0042E+00  2.5957E+00
  6.7700E-01  1.5957E+00  1.0033E+00  2.5990E+00
  6.7800E-01  1.5996E+00  1.0024E+00  2.6020E+00
  6.7900E-01  1.6031E+00  1.0016E+00  2.6047E+00
  6.8000E-01  1.6063E+00  1.0007E+00  2.6069E+00
  6.8100E-01  1.6087E+00  9.9986E-01  2.6085E+00
  6.8200E-01  1.6101E+00  9.9908E-01  2.6091E+00
  6.8300E-01  1.6104E+00  9.9829E-01  2.6087E+00
  6.8400E-01  1.6097E+00  9.9749E-01  2.6072E+00
  6.8500E-01  1.6079E+00  9.9668E-01  2.6046E+00
  6.8600E-01  1.6049E+00  9.9586E-01  2.6007E+00
  6.8700E-01  1.6007E+00  9.9503E-01  2.5957E+00
  6.8800E-01  1.5952E+00  9.9420E-01  2.5894E+00
  6.8900E-01  1.5884E+00  9.9335E-01  2.5818E+00
  6.9000E-01  1.5803E+00  9.9250E-01  2.5728E+00
  6.9100E-01  1.5797E+00  9.8446E-01  2.5642E+00
  6.9200E-01  1.5405E+00  9.8841E-01  2.5289E+00
  6.9300E-01  1.5162E+00  9.8308E-01  2.4993E+00
  6.9400E-01  1.4834E+00  9.8413E-01  2.4676E+00
  6.9500E-01  1.4199E+00  9.8848E-01  2.4084E+00
  6.9600E-01  1.3672E+00  9.8387E-01  2.3510E+00
  6.9700E-01  1.2868E+00  9.8495E-01  2.2717E+00
  6.9800E-01  1.1955E+00  9.8327E-01  2.1788E+00
  6.9900E-01  1.0728E+00  9.8449E-01  2.0573E+00
  7.0000E-01  9.2578E-01  9.8138E-01  1.9072E+00
  7.0100E-01  7.6493E-01  9.8993E-01  1.7549E+00
  7.0200E-01  5.9588E-01  9.8688E-01  1.5828E+00
  7.0300E-01  5.4455E-01  9.9864E-01  1.5432E+00
  7.0400E-01  7.7811E-01  1.0156E+00  1.7937E+00
  7.0500E-01  1.3292E+00  1.0570E+00  2.3863E+00
  7.0600E-01  1.1768E+00  1.1409E+00  2.3177E+00
  7.0700E-01  1.1283E+00  1.1485E+00  2.2767E+00
  7.0800E-01  1.1470E+00  1.1534E+00  2.3004E+00
  7.0900E-01  1.1531E+00  1.1517E+00  2.3049E+00
  7.1000E-01  1.1653E+00  1.1472E+00  2.3125E+00
  7.1100E-01  1.1730E+00  1.1433E+00  2.3163E+00
  7.1200E-01  1.1838E+00  1.1386E+00  2.3225E+00
  7.1300E-01  1.1997E+00  1.1306E+00  2.3302E+00
  7.1400E-01  1.2129E+00  1.1251E+00  2.3379E+00
  7.1500E-01  1.2237E+00  1.1217E+00  2.3454E+00
  7.1600E-01  1.2446E+00  1.1153E+00  2.3599E+00
  7.1700E-01  1.2665E+00  1.1091E+00  2.3756E+00
  7.1800E-01  1.2106E+00  1.1145E+00  2.3251E+00
  7.1900E-01  1.0891E+00  1.1346E+00  2.2237E+00
  7.2000E-01  1.1471E+00  1.1417E+00  2.2888E+00
  7.2100E-01  1.1439E+00  1.1449E+00  2.2888E+00
  7.2200E-01  1.1677E+00  1.1428E+00  2.3105E+00
  7.2300E-01  1.1885E+00  1.1360E+00  2.3245E+00
  7.2400E-01  1.2067E+00  1.1270E+00  2.3337E+00
  7.2500E-01  1.2223E+00  1.1200E+00  2.3422E+00
  7.2600E-01  1.2358E+00  1.1158E+00  2.3515E+00
  7.2700E-01  1.2431E+00  1.1142E+00  2.3573E+00
  7.2800E-01  1.2483E+00  1.1133E+00  2.3616E+00
  7.2900E-01  1.2556E+00  1.1115E+00  2.3670E+00
  7.3000E-01  1.2638E+00  1.1094E+00  2.3732E+00
  7.3100E-01  1.2630E+00  1.1102E+00  2.3733E+00
  7.3200E-01  1.2603E+00  1.1111E+00  2.3714E+00
  7.3300E-01  1.2486E+00  1.1143E+00  2.3629E+00
  7.3400E-01  1.2400E+00  1.1163E+00  2.3563E+00
  7.3500E-01  1.2325E+00  1.1181E+00  2.3506E+00
  7.3600E-01  1.2253E+00  1.1199E+00  2.3452E+00
  7.3700E-01  1.2195E+00  1.1213E+00  2.3408E+00
  7.3800E-01  1.2131E+00  1.1229E+00  2.3361E+00
  7.3900E-01  1.2089E+00  1.1241E+00  2.3330E+00
  7.4000E-01  1.2042E+00  1.1254E+00  2.3296E+00
  7.4100E-01  1.2016E+00  1.1264E+00  2.3279E+00
  7.4200E-01  1.1996E+00  1.1271E+00  2.3267E+00
  7.4300E-01  1.1970E+00  1.1281E+00  2.3251E+00
  7.4400E-01  1.1956E+00  1.1287E+00  2.3243E+00
  7.4500E-01  1.1957E+00  1.1290E+00  2.3248E+00
  7.4600E-01  1.1958E+00  1.1293E+00  2.3252E+00
  7.4700E-01  1.1959E+00  1.1295E+00  2.3254E+00
  7.4800E-01  1.1971E+00  1.1295E+00  2.3266E+00
  7.4900E-01  1.1972E+00  1.1296E+00  2.3268E+00
  7.5000E-01  1.1986E+00  1.1294E+00  2.3280E+00
  7.5100E-01  1.1995E+00  1.1292E+00  2.3287E+00
  7.5200E-01  1.2004E+00  1.1290E+00  2.3294E+00
  7.5300E-01  1.2012E+00  1.1289E+00  2.3301E+00
  7.5400E-01  1.2020E+00  1.1287E+00  2.3307E+00
  7.5500E-01  1.2028E+00  1.1286E+00  2.3314E+00
  7.5600E-01  1.2037E+00  1.1284E+00  2.3320E+00
  7.5700E-01  1.2045E+00  1.1282E+00  2.3327E+00
  7.5800E-01  1.2052E+00  1.1280E+00  2.3333E+00
  7.5900E-01  1.2060E+00  1.1279E+00  2.3339E+00
  7.6000E-01  1.2068E+00  1.1277E+00  2.3345E+00
  7.6100E-01  1.2075E+00  1.1275E+00  2.3350E+00
  7.6200E-01  1.2081E+00  1.1274E+00  2.3355E+00
  7.6300E-01  1.2087E+00  1.1272E+00  2.3359E+00
  7.6400E-01  1.2093E+00  1.1270E+00  2.3364E+00
  7.6500E-01  1.2099E+00  1.1269E+00  2.3368E+00
  7.6600E-01  1.2105E+00  1.1267E+00  2.3372E+00
  7.6700E-01  1.2111E+00  1.1265E+00  2.3376E+00
  7.6800E-01  1.2117E+00  1.1263E+00  2.3381E+00
  7.6900E-01  1.2123E+00  1.1261E+00  2.3385E+00
  7.7000E-01  1.2129E+00  1.1260E+00  2.3389E+00
  7.7100E-01  1.2135E+00  1.1258E+00  2.3393E+00
  7.7200E-01  1.2141E+00  1.1256E+00  2.3397E+00
  7.7300E-01  1.2147E+00  1.1254E+00  2.3401E+00
  7.7400E-01  1.2153E+00  1.1252E+00  2.3405E+00
  7.7500E-01  1.2158E+00  1.1251E+00  2.3409E+00
  7.7600E-01  1.2163E+00  1.1249E+00  2.3412E+00
  7.7700E-01  1.2169E+00  1.1247E+00  2.3416E+00
  7.7800E-01  1.2174E+00  1.1245E+00  2.3419E+00
  7.7900E-01  1.2180E+00  1.1243E+00  2.3423E+00
  7.8000E-01  1.2185E+00  1.1241E+00  2.3427E+00
  7.8100E-01  1.2190E+00  1.1240E+00  2.3430E+00
  7.8200E-01  1.2196E+00  1.1238E+00  2.3434E+00
  7.8300E-01  1.2201E+00  1.1236E+00  2.3437E+00
  7.8400E-01  1.2207E+00  1.1234E+00  2.3441E+00
  7.8500E-01  1.2212E+00  1.1232E+00  2.3444E+00
  7.8600E-01  1.2218E+00  1.1230E+00  2.3448E+00
  7.8700E-01  1.2223E+00  1.1228E+00  2.3451E+00
  7.8800E-01  1.2228E+00  1.1226E+00  2.3454E+00
  7.8900E-01  1.2233E+00  1.1224E+00  2.3457E+00
  7.9000E-01  1.2238E+00  1.1223E+00  2.3461E+00
  7.9100E-01  1.2243E+00  1.1221E+00  2.3464E+00
  7.9200E-01  1.2249E+00  1.1219E+00  2.3467E+00
  7.9300E-01  1.2254E+00  1.1217E+00  2.3471E+00
  7.9400E-01  1.2259E+00  1.1215E+00  2.3474E+00
  7.9500E-01  1.2265E+00  1.1213E+00  2.3477E+00
  7.9600E-01  1.2270E+00  1.1211E+00  2.3481E+00
  7.9700E-01  1.2275E+00  1.1209E+00  2.3484E+00
  7.9800E-01  1.2281E+00  1.1207E+00  2.3488E+00
  7.9900E-01  1.2285E+00  1.1205E+00  2.3490E+00
