# GGADT v1.2.1
# =-=-=
# Total cross sections as a function of energy
# -----------------------------------
# Parameter values
# -----------------------------------
# a_eff:                               6.80645E-01 micron
# ephot_min:                           6.00000E-01kiloelectron-vo
# ephot_max:                           8.00000E-01kiloelectron-vo
# nephots:                                     200
# Material file:                                   hematite
# geometry:                                        ellipsoid
# angle_mode:                                      file
# angle_file:                                      angles
# ngrain:                                      128
# norientations:                                 1
# grain-axis-z:                        7.61430E-01 micron
# grain-axis-y:                        7.61430E-01 micron
# grain-axis-z:                        5.43879E-01 micron
# grid-width:                          1.52286E+00 micron
# axes-convention:                                 ddscat
# parameter_file_name:                             large_params_set.ini
# -----------------------------------
 # [ephot (kiloelectron-volt)] [Q_sca] [Q_abs] [Q_ext]
  6.0000E-01  1.5890E+00  1.1164E+00  2.7054E+00
  6.0100E-01  1.5919E+00  1.1155E+00  2.7074E+00
  6.0200E-01  1.5948E+00  1.1146E+00  2.7094E+00
  6.0300E-01  1.5977E+00  1.1138E+00  2.7114E+00
  6.0400E-01  1.6006E+00  1.1129E+00  2.7135E+00
  6.0500E-01  1.6036E+00  1.1120E+00  2.7156E+00
  6.0600E-01  1.6067E+00  1.1111E+00  2.7177E+00
  6.0700E-01  1.6097E+00  1.1101E+00  2.7199E+00
  6.0800E-01  1.6129E+00  1.1092E+00  2.7221E+00
  6.0900E-01  1.6160E+00  1.1083E+00  2.7244E+00
  6.1000E-01  1.6192E+00  1.1075E+00  2.7267E+00
  6.1100E-01  1.6224E+00  1.1066E+00  2.7290E+00
  6.1200E-01  1.6257E+00  1.1057E+00  2.7314E+00
  6.1300E-01  1.6290E+00  1.1048E+00  2.7338E+00
  6.1400E-01  1.6323E+00  1.1039E+00  2.7362E+00
  6.1500E-01  1.6357E+00  1.1029E+00  2.7386E+00
  6.1600E-01  1.6391E+00  1.1020E+00  2.7411E+00
  6.1700E-01  1.6426E+00  1.1010E+00  2.7436E+00
  6.1800E-01  1.6461E+00  1.1001E+00  2.7462E+00
  6.1900E-01  1.6496E+00  1.0992E+00  2.7488E+00
  6.2000E-01  1.6531E+00  1.0983E+00  2.7514E+00
  6.2100E-01  1.6567E+00  1.0974E+00  2.7541E+00
  6.2200E-01  1.6603E+00  1.0965E+00  2.7568E+00
  6.2300E-01  1.6640E+00  1.0955E+00  2.7595E+00
  6.2400E-01  1.6677E+00  1.0946E+00  2.7623E+00
  6.2500E-01  1.6714E+00  1.0936E+00  2.7650E+00
  6.2600E-01  1.6752E+00  1.0927E+00  2.7678E+00
  6.2700E-01  1.6790E+00  1.0917E+00  2.7706E+00
  6.2800E-01  1.6828E+00  1.0907E+00  2.7735E+00
  6.2900E-01  1.6867E+00  1.0898E+00  2.7765E+00
  6.3000E-01  1.6906E+00  1.0888E+00  2.7794E+00
  6.3100E-01  1.6945E+00  1.0879E+00  2.7824E+00
  6.3200E-01  1.6985E+00  1.0869E+00  2.7854E+00
  6.3300E-01  1.7025E+00  1.0859E+00  2.7884E+00
  6.3400E-01  1.7066E+00  1.0849E+00  2.7914E+00
  6.3500E-01  1.7106E+00  1.0839E+00  2.7945E+00
  6.3600E-01  1.7147E+00  1.0829E+00  2.7976E+00
  6.3700E-01  1.7188E+00  1.0818E+00  2.8006E+00
  6.3800E-01  1.7230E+00  1.0808E+00  2.8037E+00
  6.3900E-01  1.7272E+00  1.0798E+00  2.8070E+00
  6.4000E-01  1.7315E+00  1.0788E+00  2.8102E+00
  6.4100E-01  1.7357E+00  1.0777E+00  2.8134E+00
  6.4200E-01  1.7400E+00  1.0767E+00  2.8167E+00
  6.4300E-01  1.7443E+00  1.0756E+00  2.8199E+00
  6.4400E-01  1.7486E+00  1.0746E+00  2.8231E+00
  6.4500E-01  1.7529E+00  1.0735E+00  2.8263E+00
  6.4600E-01  1.7572E+00  1.0724E+00  2.8296E+00
  6.4700E-01  1.7615E+00  1.0713E+00  2.8328E+00
  6.4800E-01  1.7658E+00  1.0702E+00  2.8360E+00
  6.4900E-01  1.7701E+00  1.0691E+00  2.8392E+00
  6.5000E-01  1.7744E+00  1.0680E+00  2.8425E+00
  6.5100E-01  1.7787E+00  1.0670E+00  2.8457E+00
  6.5200E-01  1.7830E+00  1.0659E+00  2.8489E+00
  6.5300E-01  1.7872E+00  1.0648E+00  2.8520E+00
  6.5400E-01  1.7914E+00  1.0636E+00  2.8551E+00
  6.5500E-01  1.7956E+00  1.0625E+00  2.8581E+00
  6.5600E-01  1.7997E+00  1.0614E+00  2.8610E+00
  6.5700E-01  1.8037E+00  1.0602E+00  2.8639E+00
  6.5800E-01  1.8077E+00  1.0590E+00  2.8668E+00
  6.5900E-01  1.8116E+00  1.0579E+00  2.8695E+00
  6.6000E-01  1.8153E+00  1.0568E+00  2.8721E+00
  6.6100E-01  1.8189E+00  1.0557E+00  2.8746E+00
  6.6200E-01  1.8224E+00  1.0546E+00  2.8770E+00
  6.6300E-01  1.8257E+00  1.0535E+00  2.8791E+00
  6.6400E-01  1.8288E+00  1.0523E+00  2.8811E+00
  6.6500E-01  1.8318E+00  1.0512E+00  2.8830E+00
  6.6600E-01  1.8346E+00  1.0500E+00  2.8846E+00
  6.6700E-01  1.8373E+00  1.0489E+00  2.8861E+00
  6.6800E-01  1.8397E+00  1.0477E+00  2.8874E+00
  6.6900E-01  1.8420E+00  1.0465E+00  2.8885E+00
  6.7000E-01  1.8435E+00  1.0454E+00  2.8888E+00
  6.7100E-01  1.8442E+00  1.0443E+00  2.8885E+00
  6.7200E-01  1.8445E+00  1.0433E+00  2.8877E+00
  6.7300E-01  1.8443E+00  1.0422E+00  2.8865E+00
  6.7400E-01  1.8437E+00  1.0411E+00  2.8849E+00
  6.7500E-01  1.8427E+00  1.0401E+00  2.8827E+00
  6.7600E-01  1.8411E+00  1.0390E+00  2.8801E+00
  6.7700E-01  1.8391E+00  1.0379E+00  2.8770E+00
  6.7800E-01  1.8366E+00  1.0367E+00  2.8733E+00
  6.7900E-01  1.8336E+00  1.0356E+00  2.8692E+00
  6.8000E-01  1.8300E+00  1.0345E+00  2.8645E+00
  6.8100E-01  1.8226E+00  1.0335E+00  2.8561E+00
  6.8200E-01  1.8134E+00  1.0325E+00  2.8458E+00
  6.8300E-01  1.8029E+00  1.0314E+00  2.8344E+00
  6.8400E-01  1.7912E+00  1.0304E+00  2.8217E+00
  6.8500E-01  1.7783E+00  1.0294E+00  2.8077E+00
  6.8600E-01  1.7641E+00  1.0283E+00  2.7925E+00
  6.8700E-01  1.7487E+00  1.0273E+00  2.7760E+00
  6.8800E-01  1.7320E+00  1.0262E+00  2.7583E+00
  6.8900E-01  1.7141E+00  1.0252E+00  2.7392E+00
  6.9000E-01  1.6949E+00  1.0241E+00  2.7189E+00
  6.9100E-01  1.6741E+00  1.0139E+00  2.6880E+00
  6.9200E-01  1.6149E+00  1.0189E+00  2.6338E+00
  6.9300E-01  1.5683E+00  1.0122E+00  2.5805E+00
  6.9400E-01  1.5217E+00  1.0135E+00  2.5352E+00
  6.9500E-01  1.4388E+00  1.0190E+00  2.4578E+00
  6.9600E-01  1.3659E+00  1.0132E+00  2.3791E+00
  6.9700E-01  1.2680E+00  1.0145E+00  2.2826E+00
  6.9800E-01  1.1606E+00  1.0124E+00  2.1731E+00
  6.9900E-01  1.0254E+00  1.0139E+00  2.0393E+00
  7.0000E-01  8.6918E-01  1.0100E+00  1.8792E+00
  7.0100E-01  7.0904E-01  1.0208E+00  1.7299E+00
  7.0200E-01  5.4376E-01  1.0170E+00  1.5607E+00
  7.0300E-01  4.9663E-01  1.0319E+00  1.5285E+00
  7.0400E-01  7.2880E-01  1.0537E+00  1.7825E+00
  7.0500E-01  1.3972E+00  1.1087E+00  2.5059E+00
  7.0600E-01  1.2862E+00  1.2296E+00  2.5158E+00
  7.0700E-01  1.2105E+00  1.2410E+00  2.4515E+00
  7.0800E-01  1.2390E+00  1.2481E+00  2.4871E+00
  7.0900E-01  1.2484E+00  1.2458E+00  2.4943E+00
  7.1000E-01  1.2668E+00  1.2391E+00  2.5059E+00
  7.1100E-01  1.2788E+00  1.2332E+00  2.5121E+00
  7.1200E-01  1.2964E+00  1.2262E+00  2.5225E+00
  7.1300E-01  1.3275E+00  1.2140E+00  2.5416E+00
  7.1400E-01  1.3561E+00  1.2058E+00  2.5619E+00
  7.1500E-01  1.3747E+00  1.2008E+00  2.5755E+00
  7.1600E-01  1.4064E+00  1.1912E+00  2.5976E+00
  7.1700E-01  1.4203E+00  1.1822E+00  2.6025E+00
  7.1800E-01  1.3091E+00  1.1900E+00  2.4992E+00
  7.1900E-01  1.1459E+00  1.2201E+00  2.3660E+00
  7.2000E-01  1.2386E+00  1.2308E+00  2.4694E+00
  7.2100E-01  1.2344E+00  1.2357E+00  2.4701E+00
  7.2200E-01  1.2723E+00  1.2325E+00  2.5047E+00
  7.2300E-01  1.3065E+00  1.2222E+00  2.5287E+00
  7.2400E-01  1.3428E+00  1.2087E+00  2.5515E+00
  7.2500E-01  1.3763E+00  1.1982E+00  2.5745E+00
  7.2600E-01  1.4010E+00  1.1919E+00  2.5930E+00
  7.2700E-01  1.4112E+00  1.1897E+00  2.6008E+00
  7.2800E-01  1.4168E+00  1.1883E+00  2.6051E+00
  7.2900E-01  1.4257E+00  1.1856E+00  2.6113E+00
  7.3000E-01  1.4345E+00  1.1826E+00  2.6171E+00
  7.3100E-01  1.4259E+00  1.1838E+00  2.6098E+00
  7.3200E-01  1.4147E+00  1.1850E+00  2.5998E+00
  7.3300E-01  1.3940E+00  1.1898E+00  2.5837E+00
  7.3400E-01  1.3780E+00  1.1927E+00  2.5708E+00
  7.3500E-01  1.3657E+00  1.1955E+00  2.5611E+00
  7.3600E-01  1.3542E+00  1.1981E+00  2.5524E+00
  7.3700E-01  1.3452E+00  1.2001E+00  2.5453E+00
  7.3800E-01  1.3356E+00  1.2026E+00  2.5382E+00
  7.3900E-01  1.3294E+00  1.2043E+00  2.5338E+00
  7.4000E-01  1.3228E+00  1.2063E+00  2.5291E+00
  7.4100E-01  1.3197E+00  1.2077E+00  2.5274E+00
  7.4200E-01  1.3173E+00  1.2088E+00  2.5261E+00
  7.4300E-01  1.3143E+00  1.2103E+00  2.5246E+00
  7.4400E-01  1.3126E+00  1.2112E+00  2.5238E+00
  7.4500E-01  1.3138E+00  1.2117E+00  2.5255E+00
  7.4600E-01  1.3147E+00  1.2121E+00  2.5269E+00
  7.4700E-01  1.3153E+00  1.2124E+00  2.5277E+00
  7.4800E-01  1.3181E+00  1.2124E+00  2.5305E+00
  7.4900E-01  1.3187E+00  1.2126E+00  2.5312E+00
  7.5000E-01  1.3214E+00  1.2122E+00  2.5336E+00
  7.5100E-01  1.3231E+00  1.2120E+00  2.5350E+00
  7.5200E-01  1.3247E+00  1.2117E+00  2.5365E+00
  7.5300E-01  1.3264E+00  1.2115E+00  2.5379E+00
  7.5400E-01  1.3280E+00  1.2113E+00  2.5393E+00
  7.5500E-01  1.3297E+00  1.2110E+00  2.5407E+00
  7.5600E-01  1.3313E+00  1.2108E+00  2.5421E+00
  7.5700E-01  1.3329E+00  1.2105E+00  2.5434E+00
  7.5800E-01  1.3345E+00  1.2103E+00  2.5448E+00
  7.5900E-01  1.3361E+00  1.2100E+00  2.5461E+00
  7.6000E-01  1.3377E+00  1.2097E+00  2.5474E+00
  7.6100E-01  1.3392E+00  1.2095E+00  2.5487E+00
  7.6200E-01  1.3404E+00  1.2092E+00  2.5496E+00
  7.6300E-01  1.3416E+00  1.2090E+00  2.5506E+00
  7.6400E-01  1.3428E+00  1.2087E+00  2.5515E+00
  7.6500E-01  1.3440E+00  1.2085E+00  2.5524E+00
  7.6600E-01  1.3452E+00  1.2082E+00  2.5534E+00
  7.6700E-01  1.3464E+00  1.2079E+00  2.5543E+00
  7.6800E-01  1.3476E+00  1.2077E+00  2.5553E+00
  7.6900E-01  1.3488E+00  1.2074E+00  2.5562E+00
  7.7000E-01  1.3500E+00  1.2071E+00  2.5571E+00
  7.7100E-01  1.3512E+00  1.2069E+00  2.5581E+00
  7.7200E-01  1.3524E+00  1.2066E+00  2.5590E+00
  7.7300E-01  1.3536E+00  1.2063E+00  2.5599E+00
  7.7400E-01  1.3547E+00  1.2060E+00  2.5607E+00
  7.7500E-01  1.3558E+00  1.2058E+00  2.5615E+00
  7.7600E-01  1.3568E+00  1.2055E+00  2.5623E+00
  7.7700E-01  1.3579E+00  1.2052E+00  2.5631E+00
  7.7800E-01  1.3589E+00  1.2050E+00  2.5639E+00
  7.7900E-01  1.3600E+00  1.2047E+00  2.5647E+00
  7.8000E-01  1.3611E+00  1.2044E+00  2.5655E+00
  7.8100E-01  1.3621E+00  1.2041E+00  2.5663E+00
  7.8200E-01  1.3632E+00  1.2038E+00  2.5671E+00
  7.8300E-01  1.3643E+00  1.2036E+00  2.5679E+00
  7.8400E-01  1.3654E+00  1.2033E+00  2.5687E+00
  7.8500E-01  1.3665E+00  1.2030E+00  2.5695E+00
  7.8600E-01  1.3676E+00  1.2027E+00  2.5703E+00
  7.8700E-01  1.3686E+00  1.2024E+00  2.5710E+00
  7.8800E-01  1.3696E+00  1.2021E+00  2.5717E+00
  7.8900E-01  1.3705E+00  1.2019E+00  2.5724E+00
  7.9000E-01  1.3715E+00  1.2016E+00  2.5731E+00
  7.9100E-01  1.3725E+00  1.2013E+00  2.5738E+00
  7.9200E-01  1.3735E+00  1.2010E+00  2.5745E+00
  7.9300E-01  1.3745E+00  1.2007E+00  2.5753E+00
  7.9400E-01  1.3756E+00  1.2004E+00  2.5760E+00
  7.9500E-01  1.3766E+00  1.2001E+00  2.5767E+00
  7.9600E-01  1.3776E+00  1.1998E+00  2.5775E+00
  7.9700E-01  1.3787E+00  1.1995E+00  2.5782E+00
  7.9800E-01  1.3797E+00  1.1992E+00  2.5790E+00
  7.9900E-01  1.3805E+00  1.1990E+00  2.5796E+00
