# GGADT v1.2.1
# =-=-=
# Total cross sections as a function of energy
# -----------------------------------
# Parameter values
# -----------------------------------
# a_eff:                               3.40000E-01 micron
# ephot_min:                           6.00000E-01kiloelectron-vo
# ephot_max:                           8.00000E-01kiloelectron-vo
# nephots:                                     200
# Material file:                                   fayalite
# geometry:                                        ellipsoid
# angle_mode:                                      file
# angle_file:                                      angles
# ngrain:                                      128
# norientations:                                 1
# grain-axis-z:                        3.40000E-01 micron
# grain-axis-y:                        3.40000E-01 micron
# grain-axis-z:                        3.40000E-01 micron
# grid-width:                          6.80000E-01 micron
# axes-convention:                                 ddscat
# parameter_file_name:                             params_sphere_set.ini
# -----------------------------------
 # [ephot (kiloelectron-volt)] [Q_sca] [Q_abs] [Q_ext]
  6.0000E-01  1.4863E+00  7.5030E-01  2.2366E+00
  6.0100E-01  1.4871E+00  7.4915E-01  2.2363E+00
  6.0200E-01  1.4880E+00  7.4799E-01  2.2360E+00
  6.0300E-01  1.4888E+00  7.4681E-01  2.2356E+00
  6.0400E-01  1.4897E+00  7.4562E-01  2.2353E+00
  6.0500E-01  1.4905E+00  7.4442E-01  2.2349E+00
  6.0600E-01  1.4914E+00  7.4320E-01  2.2346E+00
  6.0700E-01  1.4922E+00  7.4198E-01  2.2342E+00
  6.0800E-01  1.4930E+00  7.4074E-01  2.2338E+00
  6.0900E-01  1.4935E+00  7.3955E-01  2.2331E+00
  6.1000E-01  1.4939E+00  7.3839E-01  2.2323E+00
  6.1100E-01  1.4941E+00  7.3723E-01  2.2314E+00
  6.1200E-01  1.4944E+00  7.3606E-01  2.2305E+00
  6.1300E-01  1.4946E+00  7.3488E-01  2.2295E+00
  6.1400E-01  1.4949E+00  7.3369E-01  2.2286E+00
  6.1500E-01  1.4951E+00  7.3248E-01  2.2276E+00
  6.1600E-01  1.4953E+00  7.3126E-01  2.2266E+00
  6.1700E-01  1.4955E+00  7.3003E-01  2.2255E+00
  6.1800E-01  1.4956E+00  7.2880E-01  2.2244E+00
  6.1900E-01  1.4955E+00  7.2761E-01  2.2231E+00
  6.2000E-01  1.4951E+00  7.2646E-01  2.2216E+00
  6.2100E-01  1.4947E+00  7.2529E-01  2.2200E+00
  6.2200E-01  1.4943E+00  7.2412E-01  2.2184E+00
  6.2300E-01  1.4939E+00  7.2293E-01  2.2168E+00
  6.2400E-01  1.4934E+00  7.2174E-01  2.2152E+00
  6.2500E-01  1.4930E+00  7.2053E-01  2.2135E+00
  6.2600E-01  1.4925E+00  7.1931E-01  2.2118E+00
  6.2700E-01  1.4919E+00  7.1807E-01  2.2100E+00
  6.2800E-01  1.4913E+00  7.1684E-01  2.2082E+00
  6.2900E-01  1.4905E+00  7.1562E-01  2.2061E+00
  6.3000E-01  1.4894E+00  7.1443E-01  2.2039E+00
  6.3100E-01  1.4883E+00  7.1324E-01  2.2015E+00
  6.3200E-01  1.4871E+00  7.1204E-01  2.1991E+00
  6.3300E-01  1.4859E+00  7.1083E-01  2.1967E+00
  6.3400E-01  1.4846E+00  7.0961E-01  2.1942E+00
  6.3500E-01  1.4833E+00  7.0837E-01  2.1917E+00
  6.3600E-01  1.4820E+00  7.0712E-01  2.1891E+00
  6.3700E-01  1.4806E+00  7.0586E-01  2.1865E+00
  6.3800E-01  1.4792E+00  7.0459E-01  2.1838E+00
  6.3900E-01  1.4775E+00  7.0334E-01  2.1808E+00
  6.4000E-01  1.4755E+00  7.0210E-01  2.1776E+00
  6.4100E-01  1.4732E+00  7.0088E-01  2.1741E+00
  6.4200E-01  1.4710E+00  6.9964E-01  2.1706E+00
  6.4300E-01  1.4687E+00  6.9839E-01  2.1671E+00
  6.4400E-01  1.4663E+00  6.9712E-01  2.1634E+00
  6.4500E-01  1.4639E+00  6.9585E-01  2.1598E+00
  6.4600E-01  1.4615E+00  6.9456E-01  2.1560E+00
  6.4700E-01  1.4589E+00  6.9327E-01  2.1522E+00
  6.4800E-01  1.4564E+00  6.9195E-01  2.1483E+00
  6.4900E-01  1.4534E+00  6.9067E-01  2.1441E+00
  6.5000E-01  1.4501E+00  6.8940E-01  2.1395E+00
  6.5100E-01  1.4463E+00  6.8815E-01  2.1344E+00
  6.5200E-01  1.4424E+00  6.8689E-01  2.1293E+00
  6.5300E-01  1.4384E+00  6.8562E-01  2.1240E+00
  6.5400E-01  1.4344E+00  6.8434E-01  2.1187E+00
  6.5500E-01  1.4302E+00  6.8305E-01  2.1133E+00
  6.5600E-01  1.4261E+00  6.8175E-01  2.1078E+00
  6.5700E-01  1.4218E+00  6.8043E-01  2.1022E+00
  6.5800E-01  1.4175E+00  6.7910E-01  2.0966E+00
  6.5900E-01  1.4128E+00  6.7778E-01  2.0906E+00
  6.6000E-01  1.4075E+00  6.7651E-01  2.0840E+00
  6.6100E-01  1.4012E+00  6.7526E-01  2.0765E+00
  6.6200E-01  1.3946E+00  6.7402E-01  2.0686E+00
  6.6300E-01  1.3879E+00  6.7276E-01  2.0606E+00
  6.6400E-01  1.3811E+00  6.7150E-01  2.0525E+00
  6.6500E-01  1.3741E+00  6.7022E-01  2.0443E+00
  6.6600E-01  1.3671E+00  6.6893E-01  2.0360E+00
  6.6700E-01  1.3599E+00  6.6763E-01  2.0276E+00
  6.6800E-01  1.3527E+00  6.6631E-01  2.0190E+00
  6.6900E-01  1.3453E+00  6.6499E-01  2.0103E+00
  6.7000E-01  1.3367E+00  6.6375E-01  2.0005E+00
  6.7100E-01  1.3271E+00  6.6256E-01  1.9897E+00
  6.7200E-01  1.3154E+00  6.6141E-01  1.9768E+00
  6.7300E-01  1.3035E+00  6.6025E-01  1.9638E+00
  6.7400E-01  1.2914E+00  6.5907E-01  1.9505E+00
  6.7500E-01  1.2792E+00  6.5789E-01  1.9371E+00
  6.7600E-01  1.2668E+00  6.5669E-01  1.9235E+00
  6.7700E-01  1.2542E+00  6.5549E-01  1.9097E+00
  6.7800E-01  1.2415E+00  6.5428E-01  1.8957E+00
  6.7900E-01  1.2285E+00  6.5305E-01  1.8816E+00
  6.8000E-01  1.2155E+00  6.5182E-01  1.8673E+00
  6.8100E-01  1.1992E+00  6.5068E-01  1.8499E+00
  6.8200E-01  1.1802E+00  6.4956E-01  1.8298E+00
  6.8300E-01  1.1564E+00  6.4847E-01  1.8049E+00
  6.8400E-01  1.1323E+00  6.4737E-01  1.7797E+00
  6.8500E-01  1.1079E+00  6.4626E-01  1.7542E+00
  6.8600E-01  1.0833E+00  6.4514E-01  1.7285E+00
  6.8700E-01  1.0585E+00  6.4402E-01  1.7025E+00
  6.8800E-01  1.0335E+00  6.4288E-01  1.6764E+00
  6.8900E-01  1.0083E+00  6.4174E-01  1.6500E+00
  6.9000E-01  9.8288E-01  6.4058E-01  1.6235E+00
  6.9100E-01  9.4865E-01  6.3845E-01  1.5871E+00
  6.9200E-01  9.1069E-01  6.3832E-01  1.5490E+00
  6.9300E-01  8.6607E-01  6.3812E-01  1.5042E+00
  6.9400E-01  8.1885E-01  6.3748E-01  1.4563E+00
  6.9500E-01  7.6585E-01  6.3475E-01  1.4006E+00
  6.9600E-01  7.0607E-01  6.3518E-01  1.3413E+00
  6.9700E-01  6.3746E-01  6.3218E-01  1.2696E+00
  6.9800E-01  5.6115E-01  6.3185E-01  1.1930E+00
  6.9900E-01  4.7311E-01  6.3049E-01  1.1036E+00
  7.0000E-01  3.7755E-01  6.3083E-01  1.0084E+00
  7.0100E-01  2.7836E-01  6.3377E-01  9.1213E-01
  7.0200E-01  2.0302E-01  6.4202E-01  8.4504E-01
  7.0300E-01  2.2432E-01  6.6012E-01  8.8444E-01
  7.0400E-01  6.5042E-01  7.5347E-01  1.4039E+00
  7.0500E-01  9.5674E-01  9.2135E-01  1.8781E+00
  7.0600E-01  9.6524E-01  9.8543E-01  1.9507E+00
  7.0700E-01  9.3886E-01  9.8995E-01  1.9288E+00
  7.0800E-01  9.5106E-01  9.9101E-01  1.9421E+00
  7.0900E-01  1.0064E+00  9.8605E-01  1.9924E+00
  7.1000E-01  1.0829E+00  9.6394E-01  2.0468E+00
  7.1100E-01  1.1659E+00  9.3877E-01  2.1047E+00
  7.1200E-01  1.2423E+00  9.1226E-01  2.1546E+00
  7.1300E-01  1.3101E+00  8.8118E-01  2.1913E+00
  7.1400E-01  1.3066E+00  8.6157E-01  2.1682E+00
  7.1500E-01  1.2753E+00  8.4894E-01  2.1243E+00
  7.1600E-01  1.2073E+00  8.3239E-01  2.0397E+00
  7.1700E-01  9.7785E-01  8.4165E-01  1.8195E+00
  7.1800E-01  8.6858E-01  9.1469E-01  1.7833E+00
  7.1900E-01  8.9052E-01  9.5158E-01  1.8421E+00
  7.2000E-01  1.0192E+00  9.5650E-01  1.9757E+00
  7.2100E-01  1.0550E+00  9.4448E-01  1.9994E+00
  7.2200E-01  1.1188E+00  9.4229E-01  2.0611E+00
  7.2300E-01  1.2561E+00  9.0510E-01  2.1612E+00
  7.2400E-01  1.3519E+00  8.6654E-01  2.2185E+00
  7.2500E-01  1.3840E+00  8.4265E-01  2.2266E+00
  7.2600E-01  1.3750E+00  8.3128E-01  2.2063E+00
  7.2700E-01  1.3492E+00  8.2787E-01  2.1771E+00
  7.2800E-01  1.3259E+00  8.2649E-01  2.1524E+00
  7.2900E-01  1.3080E+00  8.2471E-01  2.1327E+00
  7.3000E-01  1.2869E+00  8.2360E-01  2.1105E+00
  7.3100E-01  1.2571E+00  8.2538E-01  2.0824E+00
  7.3200E-01  1.2295E+00  8.2937E-01  2.0589E+00
  7.3300E-01  1.2038E+00  8.3526E-01  2.0391E+00
  7.3400E-01  1.1854E+00  8.4031E-01  2.0257E+00
  7.3500E-01  1.1706E+00  8.4411E-01  2.0147E+00
  7.3600E-01  1.1585E+00  8.4858E-01  2.0071E+00
  7.3700E-01  1.1502E+00  8.5221E-01  2.0024E+00
  7.3800E-01  1.1442E+00  8.5464E-01  1.9988E+00
  7.3900E-01  1.1398E+00  8.5771E-01  1.9976E+00
  7.4000E-01  1.1400E+00  8.5893E-01  1.9990E+00
  7.4100E-01  1.1383E+00  8.5988E-01  1.9982E+00
  7.4200E-01  1.1370E+00  8.6135E-01  1.9984E+00
  7.4300E-01  1.1355E+00  8.6283E-01  1.9983E+00
  7.4400E-01  1.1355E+00  8.6377E-01  1.9993E+00
  7.4500E-01  1.1359E+00  8.6459E-01  2.0004E+00
  7.4600E-01  1.1368E+00  8.6580E-01  2.0026E+00
  7.4700E-01  1.1395E+00  8.6596E-01  2.0055E+00
  7.4800E-01  1.1415E+00  8.6678E-01  2.0083E+00
  7.4900E-01  1.1441E+00  8.6707E-01  2.0112E+00
  7.5000E-01  1.1486E+00  8.6672E-01  2.0153E+00
  7.5100E-01  1.1522E+00  8.6605E-01  2.0182E+00
  7.5200E-01  1.1549E+00  8.6538E-01  2.0203E+00
  7.5300E-01  1.1577E+00  8.6471E-01  2.0225E+00
  7.5400E-01  1.1606E+00  8.6403E-01  2.0246E+00
  7.5500E-01  1.1634E+00  8.6335E-01  2.0268E+00
  7.5600E-01  1.1663E+00  8.6266E-01  2.0289E+00
  7.5700E-01  1.1692E+00  8.6196E-01  2.0311E+00
  7.5800E-01  1.1721E+00  8.6125E-01  2.0333E+00
  7.5900E-01  1.1750E+00  8.6054E-01  2.0356E+00
  7.6000E-01  1.1780E+00  8.5982E-01  2.0378E+00
  7.6100E-01  1.1810E+00  8.5909E-01  2.0401E+00
  7.6200E-01  1.1833E+00  8.5840E-01  2.0417E+00
  7.6300E-01  1.1855E+00  8.5770E-01  2.0432E+00
  7.6400E-01  1.1875E+00  8.5702E-01  2.0445E+00
  7.6500E-01  1.1895E+00  8.5633E-01  2.0458E+00
  7.6600E-01  1.1915E+00  8.5564E-01  2.0471E+00
  7.6700E-01  1.1935E+00  8.5494E-01  2.0485E+00
  7.6800E-01  1.1956E+00  8.5423E-01  2.0498E+00
  7.6900E-01  1.1976E+00  8.5352E-01  2.0512E+00
  7.7000E-01  1.1997E+00  8.5279E-01  2.0525E+00
  7.7100E-01  1.2018E+00  8.5206E-01  2.0539E+00
  7.7200E-01  1.2039E+00  8.5133E-01  2.0553E+00
  7.7300E-01  1.2061E+00  8.5058E-01  2.0567E+00
  7.7400E-01  1.2080E+00  8.4986E-01  2.0579E+00
  7.7500E-01  1.2099E+00  8.4914E-01  2.0590E+00
  7.7600E-01  1.2115E+00  8.4845E-01  2.0600E+00
  7.7700E-01  1.2131E+00  8.4775E-01  2.0609E+00
  7.7800E-01  1.2148E+00  8.4704E-01  2.0618E+00
  7.7900E-01  1.2165E+00  8.4633E-01  2.0628E+00
  7.8000E-01  1.2181E+00  8.4561E-01  2.0637E+00
  7.8100E-01  1.2198E+00  8.4488E-01  2.0647E+00
  7.8200E-01  1.2215E+00  8.4415E-01  2.0657E+00
  7.8300E-01  1.2232E+00  8.4340E-01  2.0666E+00
  7.8400E-01  1.2250E+00  8.4266E-01  2.0676E+00
  7.8500E-01  1.2267E+00  8.4190E-01  2.0686E+00
  7.8600E-01  1.2284E+00  8.4114E-01  2.0696E+00
  7.8700E-01  1.2298E+00  8.4044E-01  2.0703E+00
  7.8800E-01  1.2312E+00  8.3973E-01  2.0709E+00
  7.8900E-01  1.2323E+00  8.3903E-01  2.0714E+00
  7.9000E-01  1.2335E+00  8.3833E-01  2.0718E+00
  7.9100E-01  1.2347E+00  8.3762E-01  2.0723E+00
  7.9200E-01  1.2359E+00  8.3691E-01  2.0728E+00
  7.9300E-01  1.2370E+00  8.3619E-01  2.0732E+00
  7.9400E-01  1.2382E+00  8.3546E-01  2.0737E+00
  7.9500E-01  1.2394E+00  8.3473E-01  2.0742E+00
  7.9600E-01  1.2407E+00  8.3398E-01  2.0746E+00
  7.9700E-01  1.2419E+00  8.3324E-01  2.0751E+00
  7.9800E-01  1.2431E+00  8.3248E-01  2.0756E+00
  7.9900E-01  1.2438E+00  8.3188E-01  2.0757E+00
