# GGADT v1.2.1
# =-=-=
# Total cross sections as a function of energy
# -----------------------------------
# Parameter values
# -----------------------------------
# a_eff:                               1.00000E-02 micron
# ephot_min:                           6.00000E-01kiloelectron-vo
# ephot_max:                           8.00000E-01kiloelectron-vo
# nephots:                                     200
# Material file:                                   fayalite
# geometry:                                        ellipsoid
# angle_mode:                                      file
# angle_file:                                      angles
# ngrain:                                      128
# norientations:                                 1
# grain-axis-z:                        1.00000E-02 micron
# grain-axis-y:                        1.00000E-02 micron
# grain-axis-z:                        1.00000E-02 micron
# grid-width:                          2.00000E-02 micron
# axes-convention:                                 ddscat
# parameter_file_name:                             params_sphere_set.ini
# -----------------------------------
 # [ephot (kiloelectron-volt)] [Q_sca] [Q_abs] [Q_ext]
  6.0000E-01  4.8054E-03  4.4457E-02  4.9262E-02
  6.0100E-01  4.7896E-03  4.4293E-02  4.9082E-02
  6.0200E-01  4.7737E-03  4.4128E-02  4.8902E-02
  6.0300E-01  4.7578E-03  4.3962E-02  4.8720E-02
  6.0400E-01  4.7418E-03  4.3796E-02  4.8537E-02
  6.0500E-01  4.7257E-03  4.3628E-02  4.8354E-02
  6.0600E-01  4.7096E-03  4.3460E-02  4.8170E-02
  6.0700E-01  4.6933E-03  4.3291E-02  4.7984E-02
  6.0800E-01  4.6770E-03  4.3122E-02  4.7799E-02
  6.0900E-01  4.6596E-03  4.2961E-02  4.7620E-02
  6.1000E-01  4.6416E-03  4.2804E-02  4.7445E-02
  6.1100E-01  4.6233E-03  4.2648E-02  4.7271E-02
  6.1200E-01  4.6049E-03  4.2491E-02  4.7096E-02
  6.1300E-01  4.5865E-03  4.2333E-02  4.6920E-02
  6.1400E-01  4.5680E-03  4.2175E-02  4.6743E-02
  6.1500E-01  4.5494E-03  4.2016E-02  4.6565E-02
  6.1600E-01  4.5308E-03  4.1856E-02  4.6387E-02
  6.1700E-01  4.5120E-03  4.1696E-02  4.6208E-02
  6.1800E-01  4.4931E-03  4.1536E-02  4.6029E-02
  6.1900E-01  4.4733E-03  4.1383E-02  4.5856E-02
  6.2000E-01  4.4529E-03  4.1234E-02  4.5687E-02
  6.2100E-01  4.4324E-03  4.1086E-02  4.5518E-02
  6.2200E-01  4.4118E-03  4.0937E-02  4.5348E-02
  6.2300E-01  4.3911E-03  4.0787E-02  4.5178E-02
  6.2400E-01  4.3703E-03  4.0636E-02  4.5007E-02
  6.2500E-01  4.3495E-03  4.0485E-02  4.4834E-02
  6.2600E-01  4.3286E-03  4.0333E-02  4.4662E-02
  6.2700E-01  4.3077E-03  4.0180E-02  4.4488E-02
  6.2800E-01  4.2865E-03  4.0028E-02  4.4314E-02
  6.2900E-01  4.2645E-03  3.9879E-02  4.4143E-02
  6.3000E-01  4.2417E-03  3.9734E-02  4.3976E-02
  6.3100E-01  4.2186E-03  3.9590E-02  4.3808E-02
  6.3200E-01  4.1955E-03  3.9445E-02  4.3640E-02
  6.3300E-01  4.1723E-03  3.9299E-02  4.3471E-02
  6.3400E-01  4.1490E-03  3.9153E-02  4.3302E-02
  6.3500E-01  4.1257E-03  3.9005E-02  4.3131E-02
  6.3600E-01  4.1024E-03  3.8858E-02  4.2960E-02
  6.3700E-01  4.0790E-03  3.8709E-02  4.2788E-02
  6.3800E-01  4.0554E-03  3.8560E-02  4.2616E-02
  6.3900E-01  4.0308E-03  3.8414E-02  4.2445E-02
  6.4000E-01  4.0050E-03  3.8271E-02  4.2276E-02
  6.4100E-01  3.9787E-03  3.8129E-02  4.2108E-02
  6.4200E-01  3.9523E-03  3.7987E-02  4.1939E-02
  6.4300E-01  3.9259E-03  3.7844E-02  4.1770E-02
  6.4400E-01  3.8994E-03  3.7700E-02  4.1600E-02
  6.4500E-01  3.8729E-03  3.7556E-02  4.1429E-02
  6.4600E-01  3.8464E-03  3.7411E-02  4.1258E-02
  6.4700E-01  3.8199E-03  3.7266E-02  4.1085E-02
  6.4800E-01  3.7933E-03  3.7119E-02  4.0913E-02
  6.4900E-01  3.7654E-03  3.6977E-02  4.0742E-02
  6.5000E-01  3.7362E-03  3.6836E-02  4.0572E-02
  6.5100E-01  3.7054E-03  3.6699E-02  4.0405E-02
  6.5200E-01  3.6746E-03  3.6562E-02  4.0236E-02
  6.5300E-01  3.6438E-03  3.6423E-02  4.0067E-02
  6.5400E-01  3.6129E-03  3.6285E-02  3.9897E-02
  6.5500E-01  3.5821E-03  3.6145E-02  3.9727E-02
  6.5600E-01  3.5513E-03  3.6005E-02  3.9556E-02
  6.5700E-01  3.5205E-03  3.5864E-02  3.9385E-02
  6.5800E-01  3.4897E-03  3.5723E-02  3.9213E-02
  6.5900E-01  3.4581E-03  3.5583E-02  3.9042E-02
  6.6000E-01  3.4244E-03  3.5449E-02  3.8874E-02
  6.6100E-01  3.3875E-03  3.5319E-02  3.8706E-02
  6.6200E-01  3.3499E-03  3.5189E-02  3.8539E-02
  6.6300E-01  3.3123E-03  3.5059E-02  3.8371E-02
  6.6400E-01  3.2749E-03  3.4928E-02  3.8202E-02
  6.6500E-01  3.2375E-03  3.4796E-02  3.8033E-02
  6.6600E-01  3.2001E-03  3.4664E-02  3.7864E-02
  6.6700E-01  3.1629E-03  3.4531E-02  3.7694E-02
  6.6800E-01  3.1257E-03  3.4398E-02  3.7523E-02
  6.6900E-01  3.0886E-03  3.4264E-02  3.7353E-02
  6.7000E-01  3.0484E-03  3.4139E-02  3.7188E-02
  6.7100E-01  3.0054E-03  3.4020E-02  3.7026E-02
  6.7200E-01  2.9558E-03  3.3905E-02  3.6861E-02
  6.7300E-01  2.9065E-03  3.3789E-02  3.6696E-02
  6.7400E-01  2.8574E-03  3.3673E-02  3.6531E-02
  6.7500E-01  2.8086E-03  3.3556E-02  3.6365E-02
  6.7600E-01  2.7601E-03  3.3439E-02  3.6199E-02
  6.7700E-01  2.7118E-03  3.3322E-02  3.6033E-02
  6.7800E-01  2.6638E-03  3.3203E-02  3.5867E-02
  6.7900E-01  2.6161E-03  3.3085E-02  3.5701E-02
  6.8000E-01  2.5687E-03  3.2965E-02  3.5534E-02
  6.8100E-01  2.5129E-03  3.2856E-02  3.5368E-02
  6.8200E-01  2.4503E-03  3.2749E-02  3.5199E-02
  6.8300E-01  2.3749E-03  3.2644E-02  3.5019E-02
  6.8400E-01  2.3007E-03  3.2540E-02  3.4840E-02
  6.8500E-01  2.2274E-03  3.2435E-02  3.4662E-02
  6.8600E-01  2.1553E-03  3.2329E-02  3.4484E-02
  6.8700E-01  2.0842E-03  3.2223E-02  3.4307E-02
  6.8800E-01  2.0142E-03  3.2116E-02  3.4130E-02
  6.8900E-01  1.9453E-03  3.2009E-02  3.3955E-02
  6.9000E-01  1.8776E-03  3.1902E-02  3.3779E-02
  6.9100E-01  1.7867E-03  3.1704E-02  3.3491E-02
  6.9200E-01  1.6958E-03  3.1692E-02  3.3388E-02
  6.9300E-01  1.5917E-03  3.1674E-02  3.3266E-02
  6.9400E-01  1.4837E-03  3.1615E-02  3.3099E-02
  6.9500E-01  1.3618E-03  3.1365E-02  3.2727E-02
  6.9600E-01  1.2372E-03  3.1404E-02  3.2642E-02
  6.9700E-01  1.0927E-03  3.1132E-02  3.2224E-02
  6.9800E-01  9.4408E-04  3.1102E-02  3.2046E-02
  6.9900E-01  7.7847E-04  3.0979E-02  3.1757E-02
  7.0000E-01  6.0874E-04  3.1010E-02  3.1619E-02
  7.0100E-01  4.4153E-04  3.1276E-02  3.1717E-02
  7.0200E-01  3.2106E-04  3.2036E-02  3.2357E-02
  7.0300E-01  3.6634E-04  3.3777E-02  3.4144E-02
  7.0400E-01  1.4119E-03  4.4912E-02  4.6324E-02
  7.0500E-01  4.9046E-03  9.1851E-02  9.6756E-02
  7.0600E-01  1.7462E-02  2.0668E-01  2.2414E-01
  7.0700E-01  2.0003E-02  2.4606E-01  2.6607E-01
  7.0800E-01  2.3087E-02  2.5944E-01  2.8253E-01
  7.0900E-01  2.4921E-02  2.1092E-01  2.3585E-01
  7.1000E-01  1.6201E-02  1.3516E-01  1.5136E-01
  7.1100E-01  1.2089E-02  1.0442E-01  1.1651E-01
  7.1200E-01  9.6385E-03  8.6686E-02  9.6324E-02
  7.1300E-01  7.7792E-03  7.3228E-02  8.1007E-02
  7.1400E-01  6.3354E-03  6.6877E-02  7.3212E-02
  7.1500E-01  5.4232E-03  6.3360E-02  6.8783E-02
  7.1600E-01  4.3957E-03  5.9270E-02  6.3665E-02
  7.1700E-01  3.1822E-03  6.1493E-02  6.4676E-02
  7.1800E-01  3.9257E-03  8.7994E-02  9.1920E-02
  7.1900E-01  5.8969E-03  1.1727E-01  1.2317E-01
  7.2000E-01  8.8645E-03  1.2354E-01  1.3241E-01
  7.2100E-01  8.0222E-03  1.0965E-01  1.1767E-01
  7.2200E-01  9.6495E-03  1.0757E-01  1.1722E-01
  7.2300E-01  8.9327E-03  8.3087E-02  9.2020E-02
  7.2400E-01  7.5623E-03  6.8375E-02  7.5938E-02
  7.2500E-01  6.5899E-03  6.1742E-02  6.8331E-02
  7.2600E-01  5.9329E-03  5.9014E-02  6.4947E-02
  7.2700E-01  5.5090E-03  5.8239E-02  6.3748E-02
  7.2800E-01  5.2306E-03  5.7933E-02  6.3163E-02
  7.2900E-01  5.0160E-03  5.7538E-02  6.2554E-02
  7.3000E-01  4.8081E-03  5.7297E-02  6.2105E-02
  7.3100E-01  4.6130E-03  5.7688E-02  6.2301E-02
  7.3200E-01  4.4931E-03  5.8578E-02  6.3071E-02
  7.3300E-01  4.4319E-03  5.9942E-02  6.4374E-02
  7.3400E-01  4.4075E-03  6.1161E-02  6.5568E-02
  7.3500E-01  4.3828E-03  6.2112E-02  6.6495E-02
  7.3600E-01  4.3939E-03  6.3265E-02  6.7659E-02
  7.3700E-01  4.4158E-03  6.4235E-02  6.8651E-02
  7.3800E-01  4.4270E-03  6.4899E-02  6.9326E-02
  7.3900E-01  4.4679E-03  6.5761E-02  7.0229E-02
  7.4000E-01  4.4991E-03  6.6108E-02  7.0607E-02
  7.4100E-01  4.5095E-03  6.6383E-02  7.0892E-02
  7.4200E-01  4.5362E-03  6.6813E-02  7.1350E-02
  7.4300E-01  4.5617E-03  6.7249E-02  7.1811E-02
  7.4400E-01  4.5869E-03  6.7532E-02  7.2119E-02
  7.4500E-01  4.6111E-03  6.7778E-02  7.2389E-02
  7.4600E-01  4.6510E-03  6.8145E-02  7.2796E-02
  7.4700E-01  4.6780E-03  6.8196E-02  7.2874E-02
  7.4800E-01  4.7170E-03  6.8447E-02  7.3164E-02
  7.4900E-01  4.7475E-03  6.8538E-02  7.3286E-02
  7.5000E-01  4.7754E-03  6.8429E-02  7.3204E-02
  7.5100E-01  4.7870E-03  6.8222E-02  7.3009E-02
  7.5200E-01  4.7920E-03  6.8019E-02  7.2811E-02
  7.5300E-01  4.7970E-03  6.7815E-02  7.2612E-02
  7.5400E-01  4.8021E-03  6.7611E-02  7.2413E-02
  7.5500E-01  4.8072E-03  6.7405E-02  7.2213E-02
  7.5600E-01  4.8123E-03  6.7199E-02  7.2012E-02
  7.5700E-01  4.8174E-03  6.6992E-02  7.1810E-02
  7.5800E-01  4.8226E-03  6.6784E-02  7.1607E-02
  7.5900E-01  4.8278E-03  6.6576E-02  7.1404E-02
  7.6000E-01  4.8331E-03  6.6366E-02  7.1199E-02
  7.6100E-01  4.8383E-03  6.6156E-02  7.0994E-02
  7.6200E-01  4.8387E-03  6.5956E-02  7.0795E-02
  7.6300E-01  4.8384E-03  6.5759E-02  7.0597E-02
  7.6400E-01  4.8365E-03  6.5566E-02  7.0402E-02
  7.6500E-01  4.8347E-03  6.5372E-02  7.0207E-02
  7.6600E-01  4.8328E-03  6.5178E-02  7.0011E-02
  7.6700E-01  4.8310E-03  6.4983E-02  6.9814E-02
  7.6800E-01  4.8291E-03  6.4787E-02  6.9616E-02
  7.6900E-01  4.8272E-03  6.4590E-02  6.9417E-02
  7.7000E-01  4.8254E-03  6.4393E-02  6.9218E-02
  7.7100E-01  4.8235E-03  6.4194E-02  6.9018E-02
  7.7200E-01  4.8215E-03  6.3995E-02  6.8817E-02
  7.7300E-01  4.8196E-03  6.3796E-02  6.8615E-02
  7.7400E-01  4.8167E-03  6.3603E-02  6.8420E-02
  7.7500E-01  4.8132E-03  6.3414E-02  6.8227E-02
  7.7600E-01  4.8086E-03  6.3231E-02  6.8039E-02
  7.7700E-01  4.8039E-03  6.3047E-02  6.7851E-02
  7.7800E-01  4.7992E-03  6.2863E-02  6.7662E-02
  7.7900E-01  4.7944E-03  6.2679E-02  6.7473E-02
  7.8000E-01  4.7897E-03  6.2493E-02  6.7283E-02
  7.8100E-01  4.7849E-03  6.2307E-02  6.7092E-02
  7.8200E-01  4.7800E-03  6.2120E-02  6.6900E-02
  7.8300E-01  4.7752E-03  6.1933E-02  6.6708E-02
  7.8400E-01  4.7703E-03  6.1744E-02  6.6515E-02
  7.8500E-01  4.7655E-03  6.1555E-02  6.6321E-02
  7.8600E-01  4.7604E-03  6.1368E-02  6.6128E-02
  7.8700E-01  4.7543E-03  6.1192E-02  6.5947E-02
  7.8800E-01  4.7475E-03  6.1019E-02  6.5767E-02
  7.8900E-01  4.7397E-03  6.0849E-02  6.5589E-02
  7.9000E-01  4.7318E-03  6.0679E-02  6.5411E-02
  7.9100E-01  4.7239E-03  6.0508E-02  6.5231E-02
  7.9200E-01  4.7159E-03  6.0336E-02  6.5052E-02
  7.9300E-01  4.7079E-03  6.0163E-02  6.4871E-02
  7.9400E-01  4.6999E-03  5.9990E-02  6.4690E-02
  7.9500E-01  4.6918E-03  5.9817E-02  6.4508E-02
  7.9600E-01  4.6837E-03  5.9642E-02  6.4326E-02
  7.9700E-01  4.6756E-03  5.9467E-02  6.4143E-02
  7.9800E-01  4.6674E-03  5.9291E-02  6.3959E-02
  7.9900E-01  4.6591E-03  5.9153E-02  6.3812E-02
