# GGADT v1.2.1
# =-=-=
# Total cross sections as a function of energy
# -----------------------------------
# Parameter values
# -----------------------------------
# a_eff:                               1.00000E-02 micron
# ephot_min:                           6.00000E-01kiloelectron-vo
# ephot_max:                           8.00000E-01kiloelectron-vo
# nephots:                                     200
# Material file:                                   fayalite
# geometry:                                        ellipsoid
# angle_mode:                                      file
# angle_file:                                      angles
# ngrain:                                      128
# norientations:                                 1
# grain-axis-z:                        1.58740E-02 micron
# grain-axis-y:                        7.93701E-03 micron
# grain-axis-z:                        7.93701E-03 micron
# grid-width:                          3.17480E-02 micron
# axes-convention:                                 ddscat
# parameter_file_name:                             params_prolate_set.ini
# -----------------------------------
 # [ephot (kiloelectron-volt)] [Q_sca] [Q_abs] [Q_ext]
  6.0000E-01  3.8361E-03  4.4691E-02  4.8528E-02
  6.0100E-01  3.8234E-03  4.4526E-02  4.8349E-02
  6.0200E-01  3.8107E-03  4.4359E-02  4.8170E-02
  6.0300E-01  3.7979E-03  4.4192E-02  4.7989E-02
  6.0400E-01  3.7850E-03  4.4023E-02  4.7808E-02
  6.0500E-01  3.7721E-03  4.3854E-02  4.7626E-02
  6.0600E-01  3.7591E-03  4.3684E-02  4.7443E-02
  6.0700E-01  3.7461E-03  4.3514E-02  4.7260E-02
  6.0800E-01  3.7330E-03  4.3343E-02  4.7076E-02
  6.0900E-01  3.7190E-03  4.3180E-02  4.6899E-02
  6.1000E-01  3.7046E-03  4.3021E-02  4.6726E-02
  6.1100E-01  3.6899E-03  4.2863E-02  4.6553E-02
  6.1200E-01  3.6751E-03  4.2705E-02  4.6380E-02
  6.1300E-01  3.6604E-03  4.2546E-02  4.6206E-02
  6.1400E-01  3.6455E-03  4.2386E-02  4.6032E-02
  6.1500E-01  3.6306E-03  4.2226E-02  4.5856E-02
  6.1600E-01  3.6156E-03  4.2064E-02  4.5680E-02
  6.1700E-01  3.6006E-03  4.1902E-02  4.5503E-02
  6.1800E-01  3.5854E-03  4.1741E-02  4.5327E-02
  6.1900E-01  3.5696E-03  4.1586E-02  4.5156E-02
  6.2000E-01  3.5533E-03  4.1436E-02  4.4989E-02
  6.2100E-01  3.5368E-03  4.1286E-02  4.4823E-02
  6.2200E-01  3.5203E-03  4.1136E-02  4.4656E-02
  6.2300E-01  3.5037E-03  4.0984E-02  4.4488E-02
  6.2400E-01  3.4870E-03  4.0832E-02  4.4319E-02
  6.2500E-01  3.4704E-03  4.0679E-02  4.4150E-02
  6.2600E-01  3.4536E-03  4.0526E-02  4.3980E-02
  6.2700E-01  3.4369E-03  4.0372E-02  4.3809E-02
  6.2800E-01  3.4199E-03  4.0218E-02  4.3638E-02
  6.2900E-01  3.4023E-03  4.0067E-02  4.3470E-02
  6.3000E-01  3.3840E-03  3.9921E-02  4.3305E-02
  6.3100E-01  3.3655E-03  3.9776E-02  4.3141E-02
  6.3200E-01  3.3470E-03  3.9629E-02  4.2976E-02
  6.3300E-01  3.3284E-03  3.9482E-02  4.2810E-02
  6.3400E-01  3.3098E-03  3.9334E-02  4.2644E-02
  6.3500E-01  3.2912E-03  3.9186E-02  4.2477E-02
  6.3600E-01  3.2725E-03  3.9037E-02  4.2309E-02
  6.3700E-01  3.2538E-03  3.8887E-02  4.2141E-02
  6.3800E-01  3.2349E-03  3.8737E-02  4.1972E-02
  6.3900E-01  3.2152E-03  3.8589E-02  4.1804E-02
  6.4000E-01  3.1946E-03  3.8445E-02  4.1639E-02
  6.4100E-01  3.1735E-03  3.8302E-02  4.1475E-02
  6.4200E-01  3.1524E-03  3.8158E-02  4.1310E-02
  6.4300E-01  3.1313E-03  3.8014E-02  4.1145E-02
  6.4400E-01  3.1101E-03  3.7869E-02  4.0979E-02
  6.4500E-01  3.0889E-03  3.7723E-02  4.0812E-02
  6.4600E-01  3.0677E-03  3.7577E-02  4.0645E-02
  6.4700E-01  3.0465E-03  3.7430E-02  4.0477E-02
  6.4800E-01  3.0252E-03  3.7283E-02  4.0308E-02
  6.4900E-01  3.0029E-03  3.7139E-02  4.0141E-02
  6.5000E-01  2.9796E-03  3.6997E-02  3.9977E-02
  6.5100E-01  2.9550E-03  3.6859E-02  3.9814E-02
  6.5200E-01  2.9303E-03  3.6720E-02  3.9650E-02
  6.5300E-01  2.9057E-03  3.6581E-02  3.9486E-02
  6.5400E-01  2.8811E-03  3.6440E-02  3.9322E-02
  6.5500E-01  2.8564E-03  3.6300E-02  3.9156E-02
  6.5600E-01  2.8318E-03  3.6159E-02  3.8990E-02
  6.5700E-01  2.8072E-03  3.6017E-02  3.8824E-02
  6.5800E-01  2.7826E-03  3.5874E-02  3.8657E-02
  6.5900E-01  2.7573E-03  3.5733E-02  3.8491E-02
  6.6000E-01  2.7304E-03  3.5598E-02  3.8328E-02
  6.6100E-01  2.7009E-03  3.5467E-02  3.8168E-02
  6.6200E-01  2.6709E-03  3.5336E-02  3.8007E-02
  6.6300E-01  2.6409E-03  3.5204E-02  3.7845E-02
  6.6400E-01  2.6110E-03  3.5072E-02  3.7683E-02
  6.6500E-01  2.5811E-03  3.4939E-02  3.7520E-02
  6.6600E-01  2.5513E-03  3.4806E-02  3.7357E-02
  6.6700E-01  2.5216E-03  3.4672E-02  3.7194E-02
  6.6800E-01  2.4919E-03  3.4538E-02  3.7030E-02
  6.6900E-01  2.4623E-03  3.4403E-02  3.6865E-02
  6.7000E-01  2.4302E-03  3.4277E-02  3.6707E-02
  6.7100E-01  2.3958E-03  3.4157E-02  3.6553E-02
  6.7200E-01  2.3563E-03  3.4041E-02  3.6397E-02
  6.7300E-01  2.3169E-03  3.3925E-02  3.6241E-02
  6.7400E-01  2.2778E-03  3.3807E-02  3.6085E-02
  6.7500E-01  2.2388E-03  3.3690E-02  3.5929E-02
  6.7600E-01  2.2001E-03  3.3572E-02  3.5772E-02
  6.7700E-01  2.1616E-03  3.3453E-02  3.5615E-02
  6.7800E-01  2.1233E-03  3.3334E-02  3.5457E-02
  6.7900E-01  2.0852E-03  3.3214E-02  3.5299E-02
  6.8000E-01  2.0474E-03  3.3094E-02  3.5141E-02
  6.8100E-01  2.0029E-03  3.2983E-02  3.4986E-02
  6.8200E-01  1.9529E-03  3.2876E-02  3.4829E-02
  6.8300E-01  1.8929E-03  3.2771E-02  3.4663E-02
  6.8400E-01  1.8336E-03  3.2665E-02  3.4499E-02
  6.8500E-01  1.7752E-03  3.2559E-02  3.4334E-02
  6.8600E-01  1.7177E-03  3.2453E-02  3.4170E-02
  6.8700E-01  1.6610E-03  3.2346E-02  3.4007E-02
  6.8800E-01  1.6052E-03  3.2238E-02  3.3844E-02
  6.8900E-01  1.5503E-03  3.2130E-02  3.3681E-02
  6.9000E-01  1.4963E-03  3.2022E-02  3.3518E-02
  6.9100E-01  1.4238E-03  3.1823E-02  3.3247E-02
  6.9200E-01  1.3513E-03  3.1811E-02  3.3162E-02
  6.9300E-01  1.2684E-03  3.1793E-02  3.3061E-02
  6.9400E-01  1.1823E-03  3.1733E-02  3.2916E-02
  6.9500E-01  1.0852E-03  3.1482E-02  3.2567E-02
  6.9600E-01  9.8584E-04  3.1521E-02  3.2507E-02
  6.9700E-01  8.7070E-04  3.1246E-02  3.2117E-02
  6.9800E-01  7.5225E-04  3.1216E-02  3.1969E-02
  6.9900E-01  6.2028E-04  3.1092E-02  3.1712E-02
  7.0000E-01  4.8504E-04  3.1124E-02  3.1609E-02
  7.0100E-01  3.5181E-04  3.1391E-02  3.1743E-02
  7.0200E-01  2.5585E-04  3.2158E-02  3.2413E-02
  7.0300E-01  2.9199E-04  3.3912E-02  3.4204E-02
  7.0400E-01  1.1271E-03  4.5151E-02  4.6278E-02
  7.0500E-01  3.9396E-03  9.2871E-02  9.6811E-02
  7.0600E-01  1.4260E-02  2.1211E-01  2.2637E-01
  7.0700E-01  1.6433E-02  2.5392E-01  2.7035E-01
  7.0800E-01  1.9007E-02  2.6823E-01  2.8724E-01
  7.0900E-01  2.0371E-02  2.1660E-01  2.3697E-01
  7.1000E-01  1.3096E-02  1.3741E-01  1.5050E-01
  7.1100E-01  9.7301E-03  1.0575E-01  1.1548E-01
  7.1200E-01  7.7384E-03  8.7592E-02  9.5331E-02
  7.1300E-01  6.2341E-03  7.3871E-02  8.0105E-02
  7.1400E-01  5.0725E-03  6.7412E-02  7.2484E-02
  7.1500E-01  4.3400E-03  6.3840E-02  6.8180E-02
  7.1600E-01  3.5157E-03  5.9689E-02  6.3205E-02
  7.1700E-01  2.5457E-03  6.1945E-02  6.4491E-02
  7.1800E-01  3.1515E-03  8.8929E-02  9.2080E-02
  7.1900E-01  4.7530E-03  1.1896E-01  1.2371E-01
  7.2000E-01  7.1520E-03  1.2541E-01  1.3256E-01
  7.2100E-01  6.4600E-03  1.1111E-01  1.1757E-01
  7.2200E-01  7.7688E-03  1.0898E-01  1.1674E-01
  7.2300E-01  7.1681E-03  8.3919E-02  9.1087E-02
  7.2400E-01  6.0564E-03  6.8935E-02  7.4992E-02
  7.2500E-01  5.2728E-03  6.2197E-02  6.7470E-02
  7.2600E-01  4.7453E-03  5.9430E-02  6.4175E-02
  7.2700E-01  4.4057E-03  5.8644E-02  6.3049E-02
  7.2800E-01  4.1829E-03  5.8333E-02  6.2516E-02
  7.2900E-01  4.0110E-03  5.7933E-02  6.1944E-02
  7.3000E-01  3.8446E-03  5.7689E-02  6.1533E-02
  7.3100E-01  3.6888E-03  5.8085E-02  6.1773E-02
  7.3200E-01  3.5933E-03  5.8987E-02  6.2581E-02
  7.3300E-01  3.5450E-03  6.0371E-02  6.3916E-02
  7.3400E-01  3.5260E-03  6.1608E-02  6.5134E-02
  7.3500E-01  3.5066E-03  6.2573E-02  6.6080E-02
  7.3600E-01  3.5161E-03  6.3743E-02  6.7259E-02
  7.3700E-01  3.5340E-03  6.4729E-02  6.8263E-02
  7.3800E-01  3.5433E-03  6.5402E-02  6.8946E-02
  7.3900E-01  3.5764E-03  6.6278E-02  6.9855E-02
  7.4000E-01  3.6016E-03  6.6631E-02  7.0233E-02
  7.4100E-01  3.6101E-03  6.6910E-02  7.0520E-02
  7.4200E-01  3.6317E-03  6.7348E-02  7.0979E-02
  7.4300E-01  3.6523E-03  6.7790E-02  7.1443E-02
  7.4400E-01  3.6726E-03  6.8078E-02  7.1751E-02
  7.4500E-01  3.6921E-03  6.8328E-02  7.2020E-02
  7.4600E-01  3.7242E-03  6.8702E-02  7.2426E-02
  7.4700E-01  3.7459E-03  6.8753E-02  7.2499E-02
  7.4800E-01  3.7772E-03  6.9008E-02  7.2785E-02
  7.4900E-01  3.8017E-03  6.9101E-02  7.2903E-02
  7.5000E-01  3.8240E-03  6.8989E-02  7.2813E-02
  7.5100E-01  3.8332E-03  6.8779E-02  7.2613E-02
  7.5200E-01  3.8371E-03  6.8573E-02  7.2410E-02
  7.5300E-01  3.8410E-03  6.8366E-02  7.2207E-02
  7.5400E-01  3.8450E-03  6.8158E-02  7.2003E-02
  7.5500E-01  3.8489E-03  6.7949E-02  7.1798E-02
  7.5600E-01  3.8529E-03  6.7740E-02  7.1593E-02
  7.5700E-01  3.8569E-03  6.7530E-02  7.1386E-02
  7.5800E-01  3.8610E-03  6.7318E-02  7.1179E-02
  7.5900E-01  3.8651E-03  6.7106E-02  7.0971E-02
  7.6000E-01  3.8691E-03  6.6893E-02  7.0763E-02
  7.6100E-01  3.8733E-03  6.6680E-02  7.0553E-02
  7.6200E-01  3.8735E-03  6.6477E-02  7.0350E-02
  7.6300E-01  3.8731E-03  6.6276E-02  7.0149E-02
  7.6400E-01  3.8715E-03  6.6080E-02  6.9952E-02
  7.6500E-01  3.8700E-03  6.5883E-02  6.9753E-02
  7.6600E-01  3.8684E-03  6.5686E-02  6.9554E-02
  7.6700E-01  3.8668E-03  6.5488E-02  6.9355E-02
  7.6800E-01  3.8652E-03  6.5289E-02  6.9154E-02
  7.6900E-01  3.8636E-03  6.5089E-02  6.8953E-02
  7.7000E-01  3.8620E-03  6.4889E-02  6.8750E-02
  7.7100E-01  3.8604E-03  6.4687E-02  6.8548E-02
  7.7200E-01  3.8587E-03  6.4485E-02  6.8344E-02
  7.7300E-01  3.8571E-03  6.4282E-02  6.8139E-02
  7.7400E-01  3.8547E-03  6.4087E-02  6.7941E-02
  7.7500E-01  3.8517E-03  6.3894E-02  6.7746E-02
  7.7600E-01  3.8480E-03  6.3708E-02  6.7556E-02
  7.7700E-01  3.8441E-03  6.3522E-02  6.7367E-02
  7.7800E-01  3.8403E-03  6.3336E-02  6.7176E-02
  7.7900E-01  3.8364E-03  6.3148E-02  6.6984E-02
  7.8000E-01  3.8325E-03  6.2960E-02  6.6792E-02
  7.8100E-01  3.8285E-03  6.2771E-02  6.6599E-02
  7.8200E-01  3.8246E-03  6.2581E-02  6.6406E-02
  7.8300E-01  3.8206E-03  6.2391E-02  6.6211E-02
  7.8400E-01  3.8166E-03  6.2200E-02  6.6016E-02
  7.8500E-01  3.8126E-03  6.2008E-02  6.5821E-02
  7.8600E-01  3.8085E-03  6.1818E-02  6.5626E-02
  7.8700E-01  3.8035E-03  6.1640E-02  6.5443E-02
  7.8800E-01  3.7980E-03  6.1464E-02  6.5262E-02
  7.8900E-01  3.7917E-03  6.1291E-02  6.5083E-02
  7.9000E-01  3.7853E-03  6.1118E-02  6.4904E-02
  7.9100E-01  3.7788E-03  6.0945E-02  6.4724E-02
  7.9200E-01  3.7724E-03  6.0771E-02  6.4543E-02
  7.9300E-01  3.7659E-03  6.0596E-02  6.4361E-02
  7.9400E-01  3.7594E-03  6.0420E-02  6.4179E-02
  7.9500E-01  3.7529E-03  6.0244E-02  6.3997E-02
  7.9600E-01  3.7463E-03  6.0067E-02  6.3813E-02
  7.9700E-01  3.7397E-03  5.9889E-02  6.3629E-02
  7.9800E-01  3.7331E-03  5.9711E-02  6.3444E-02
  7.9900E-01  3.7263E-03  5.9571E-02  6.3297E-02
