# GGADT v1.2.1
# =-=-=
# Total cross sections as a function of energy
# -----------------------------------
# Parameter values
# -----------------------------------
# a_eff:                               6.70000E-01 micron
# ephot_min:                           6.00000E-01kiloelectron-vo
# ephot_max:                           8.00000E-01kiloelectron-vo
# nephots:                                     200
# Material file:                                   lepidocrocite
# geometry:                                        ellipsoid
# angle_mode:                                      random
# ngrain:                                      128
# norientations:                                 1
# grain-axis-z:                        5.35373E-01 micron
# grain-axis-y:                        7.49522E-01 micron
# grain-axis-z:                        7.49522E-01 micron
# grid-width:                          1.49904E+00 micron
# axes-convention:                                 ddscat
# parameter_file_name:                             params_oblate_rand.ini
# -----------------------------------
 # [ephot (kiloelectron-volt)] [Q_sca] [Q_abs] [Q_ext]
  6.0000E-01  1.7750E+00  1.0630E+00  2.8380E+00
  6.0100E-01  1.7778E+00  1.0620E+00  2.8398E+00
  6.0200E-01  1.7807E+00  1.0609E+00  2.8416E+00
  6.0300E-01  1.7836E+00  1.0598E+00  2.8434E+00
  6.0400E-01  1.7866E+00  1.0587E+00  2.8453E+00
  6.0500E-01  1.7895E+00  1.0576E+00  2.8471E+00
  6.0600E-01  1.7925E+00  1.0564E+00  2.8490E+00
  6.0700E-01  1.7956E+00  1.0553E+00  2.8509E+00
  6.0800E-01  1.7986E+00  1.0541E+00  2.8527E+00
  6.0900E-01  1.8013E+00  1.0531E+00  2.8544E+00
  6.1000E-01  1.8041E+00  1.0520E+00  2.8561E+00
  6.1100E-01  1.8068E+00  1.0509E+00  2.8577E+00
  6.1200E-01  1.8096E+00  1.0498E+00  2.8594E+00
  6.1300E-01  1.8124E+00  1.0487E+00  2.8611E+00
  6.1400E-01  1.8153E+00  1.0476E+00  2.8628E+00
  6.1500E-01  1.8181E+00  1.0464E+00  2.8645E+00
  6.1600E-01  1.8210E+00  1.0453E+00  2.8663E+00
  6.1700E-01  1.8239E+00  1.0441E+00  2.8680E+00
  6.1800E-01  1.8267E+00  1.0429E+00  2.8696E+00
  6.1900E-01  1.8293E+00  1.0418E+00  2.8711E+00
  6.2000E-01  1.8319E+00  1.0407E+00  2.8726E+00
  6.2100E-01  1.8344E+00  1.0396E+00  2.8741E+00
  6.2200E-01  1.8370E+00  1.0385E+00  2.8755E+00
  6.2300E-01  1.8397E+00  1.0374E+00  2.8770E+00
  6.2400E-01  1.8423E+00  1.0362E+00  2.8785E+00
  6.2500E-01  1.8449E+00  1.0350E+00  2.8799E+00
  6.2600E-01  1.8476E+00  1.0339E+00  2.8814E+00
  6.2700E-01  1.8502E+00  1.0327E+00  2.8829E+00
  6.2800E-01  1.8528E+00  1.0315E+00  2.8843E+00
  6.2900E-01  1.8551E+00  1.0303E+00  2.8855E+00
  6.3000E-01  1.8575E+00  1.0292E+00  2.8867E+00
  6.3100E-01  1.8598E+00  1.0280E+00  2.8878E+00
  6.3200E-01  1.8622E+00  1.0268E+00  2.8890E+00
  6.3300E-01  1.8645E+00  1.0256E+00  2.8901E+00
  6.3400E-01  1.8668E+00  1.0244E+00  2.8913E+00
  6.3500E-01  1.8692E+00  1.0232E+00  2.8924E+00
  6.3600E-01  1.8715E+00  1.0220E+00  2.8935E+00
  6.3700E-01  1.8738E+00  1.0207E+00  2.8946E+00
  6.3800E-01  1.8761E+00  1.0195E+00  2.8956E+00
  6.3900E-01  1.8780E+00  1.0183E+00  2.8963E+00
  6.4000E-01  1.8799E+00  1.0171E+00  2.8970E+00
  6.4100E-01  1.8818E+00  1.0158E+00  2.8976E+00
  6.4200E-01  1.8837E+00  1.0146E+00  2.8983E+00
  6.4300E-01  1.8855E+00  1.0133E+00  2.8988E+00
  6.4400E-01  1.8873E+00  1.0121E+00  2.8994E+00
  6.4500E-01  1.8891E+00  1.0108E+00  2.8999E+00
  6.4600E-01  1.8908E+00  1.0095E+00  2.9003E+00
  6.4700E-01  1.8926E+00  1.0081E+00  2.9007E+00
  6.4800E-01  1.8942E+00  1.0068E+00  2.9011E+00
  6.4900E-01  1.8954E+00  1.0055E+00  2.9010E+00
  6.5000E-01  1.8964E+00  1.0043E+00  2.9007E+00
  6.5100E-01  1.8973E+00  1.0030E+00  2.9003E+00
  6.5200E-01  1.8981E+00  1.0017E+00  2.8999E+00
  6.5300E-01  1.8989E+00  1.0004E+00  2.8993E+00
  6.5400E-01  1.8996E+00  9.9909E-01  2.8987E+00
  6.5500E-01  1.9003E+00  9.9776E-01  2.8980E+00
  6.5600E-01  1.9008E+00  9.9641E-01  2.8972E+00
  6.5700E-01  1.9013E+00  9.9504E-01  2.8964E+00
  6.5800E-01  1.9017E+00  9.9367E-01  2.8954E+00
  6.5900E-01  1.9017E+00  9.9231E-01  2.8940E+00
  6.6000E-01  1.9008E+00  9.9104E-01  2.8918E+00
  6.6100E-01  1.8997E+00  9.8975E-01  2.8895E+00
  6.6200E-01  1.8985E+00  9.8845E-01  2.8869E+00
  6.6300E-01  1.8971E+00  9.8714E-01  2.8842E+00
  6.6400E-01  1.8956E+00  9.8581E-01  2.8814E+00
  6.6500E-01  1.8939E+00  9.8446E-01  2.8784E+00
  6.6600E-01  1.8921E+00  9.8311E-01  2.8752E+00
  6.6700E-01  1.8901E+00  9.8174E-01  2.8718E+00
  6.6800E-01  1.8879E+00  9.8035E-01  2.8683E+00
  6.6900E-01  1.8856E+00  9.7895E-01  2.8646E+00
  6.7000E-01  1.8814E+00  9.7767E-01  2.8591E+00
  6.7100E-01  1.8759E+00  9.7647E-01  2.8524E+00
  6.7200E-01  1.8702E+00  9.7525E-01  2.8454E+00
  6.7300E-01  1.8641E+00  9.7402E-01  2.8381E+00
  6.7400E-01  1.8576E+00  9.7278E-01  2.8304E+00
  6.7500E-01  1.8509E+00  9.7153E-01  2.8224E+00
  6.7600E-01  1.8438E+00  9.7026E-01  2.8140E+00
  6.7700E-01  1.8363E+00  9.6898E-01  2.8053E+00
  6.7800E-01  1.8286E+00  9.6769E-01  2.7962E+00
  6.7900E-01  1.8204E+00  9.6638E-01  2.7868E+00
  6.8000E-01  1.8120E+00  9.6506E-01  2.7770E+00
  6.8100E-01  1.7965E+00  9.6389E-01  2.7604E+00
  6.8200E-01  1.7786E+00  9.6273E-01  2.7413E+00
  6.8300E-01  1.7598E+00  9.6157E-01  2.7214E+00
  6.8400E-01  1.7402E+00  9.6040E-01  2.7006E+00
  6.8500E-01  1.7197E+00  9.5921E-01  2.6789E+00
  6.8600E-01  1.6983E+00  9.5801E-01  2.6563E+00
  6.8700E-01  1.6761E+00  9.5681E-01  2.6329E+00
  6.8800E-01  1.6531E+00  9.5559E-01  2.6087E+00
  6.8900E-01  1.6292E+00  9.5436E-01  2.5836E+00
  6.9000E-01  1.6046E+00  9.5311E-01  2.5577E+00
  6.9100E-01  1.5775E+00  9.5815E-01  2.5357E+00
  6.9200E-01  1.5527E+00  9.4831E-01  2.5010E+00
  6.9300E-01  1.4924E+00  9.4932E-01  2.4417E+00
  6.9400E-01  1.4448E+00  9.5450E-01  2.3993E+00
  6.9500E-01  1.3839E+00  9.5321E-01  2.3371E+00
  6.9600E-01  1.3163E+00  9.5699E-01  2.2733E+00
  6.9700E-01  1.2255E+00  9.6156E-01  2.1870E+00
  6.9800E-01  1.1419E+00  9.5899E-01  2.1008E+00
  6.9900E-01  1.0476E+00  9.5039E-01  1.9980E+00
  7.0000E-01  9.1067E-01  9.6091E-01  1.8716E+00
  7.0100E-01  7.6948E-01  9.6338E-01  1.7329E+00
  7.0200E-01  6.2195E-01  9.7462E-01  1.5966E+00
  7.0300E-01  4.8696E-01  9.8666E-01  1.4736E+00
  7.0400E-01  4.6547E-01  1.0056E+00  1.4710E+00
  7.0500E-01  8.6043E-01  1.0629E+00  1.9234E+00
  7.0600E-01  1.2850E+00  1.2088E+00  2.4938E+00
  7.0700E-01  1.1685E+00  1.2340E+00  2.4025E+00
  7.0800E-01  1.2136E+00  1.2399E+00  2.4536E+00
  7.0900E-01  1.2440E+00  1.2375E+00  2.4815E+00
  7.1000E-01  1.2820E+00  1.2235E+00  2.5056E+00
  7.1100E-01  1.3248E+00  1.2085E+00  2.5333E+00
  7.1200E-01  1.3589E+00  1.1981E+00  2.5569E+00
  7.1300E-01  1.4250E+00  1.1782E+00  2.6033E+00
  7.1400E-01  1.4708E+00  1.1633E+00  2.6342E+00
  7.1500E-01  1.4858E+00  1.1568E+00  2.6426E+00
  7.1600E-01  1.5291E+00  1.1385E+00  2.6676E+00
  7.1700E-01  1.5128E+00  1.1219E+00  2.6348E+00
  7.1800E-01  1.3216E+00  1.1392E+00  2.4608E+00
  7.1900E-01  1.0964E+00  1.1841E+00  2.2805E+00
  7.2000E-01  1.2268E+00  1.2159E+00  2.4427E+00
  7.2100E-01  1.2204E+00  1.2139E+00  2.4343E+00
  7.2200E-01  1.2911E+00  1.2150E+00  2.5061E+00
  7.2300E-01  1.3591E+00  1.1980E+00  2.5571E+00
  7.2400E-01  1.4694E+00  1.1633E+00  2.6326E+00
  7.2500E-01  1.5495E+00  1.1398E+00  2.6894E+00
  7.2600E-01  1.5717E+00  1.1319E+00  2.7036E+00
  7.2700E-01  1.5677E+00  1.1303E+00  2.6980E+00
  7.2800E-01  1.5532E+00  1.1322E+00  2.6855E+00
  7.2900E-01  1.5584E+00  1.1280E+00  2.6865E+00
  7.3000E-01  1.5633E+00  1.1240E+00  2.6874E+00
  7.3100E-01  1.5473E+00  1.1229E+00  2.6702E+00
  7.3200E-01  1.5149E+00  1.1284E+00  2.6432E+00
  7.3300E-01  1.4855E+00  1.1341E+00  2.6196E+00
  7.3400E-01  1.4558E+00  1.1404E+00  2.5962E+00
  7.3500E-01  1.4433E+00  1.1441E+00  2.5874E+00
  7.3600E-01  1.4328E+00  1.1465E+00  2.5793E+00
  7.3700E-01  1.4293E+00  1.1474E+00  2.5766E+00
  7.3800E-01  1.4193E+00  1.1498E+00  2.5692E+00
  7.3900E-01  1.4026E+00  1.1534E+00  2.5560E+00
  7.4000E-01  1.3758E+00  1.1604E+00  2.5362E+00
  7.4100E-01  1.3816E+00  1.1600E+00  2.5415E+00
  7.4200E-01  1.3662E+00  1.1648E+00  2.5310E+00
  7.4300E-01  1.3688E+00  1.1667E+00  2.5355E+00
  7.4400E-01  1.3708E+00  1.1680E+00  2.5387E+00
  7.4500E-01  1.3631E+00  1.1711E+00  2.5342E+00
  7.4600E-01  1.3778E+00  1.1692E+00  2.5470E+00
  7.4700E-01  1.3744E+00  1.1715E+00  2.5459E+00
  7.4800E-01  1.3824E+00  1.1700E+00  2.5524E+00
  7.4900E-01  1.3813E+00  1.1710E+00  2.5522E+00
  7.5000E-01  1.3770E+00  1.1719E+00  2.5489E+00
  7.5100E-01  1.3808E+00  1.1714E+00  2.5522E+00
  7.5200E-01  1.3845E+00  1.1710E+00  2.5556E+00
  7.5300E-01  1.3883E+00  1.1706E+00  2.5589E+00
  7.5400E-01  1.3920E+00  1.1701E+00  2.5622E+00
  7.5500E-01  1.3958E+00  1.1697E+00  2.5655E+00
  7.5600E-01  1.3995E+00  1.1692E+00  2.5687E+00
  7.5700E-01  1.4033E+00  1.1688E+00  2.5720E+00
  7.5800E-01  1.4070E+00  1.1683E+00  2.5753E+00
  7.5900E-01  1.4107E+00  1.1678E+00  2.5785E+00
  7.6000E-01  1.4144E+00  1.1673E+00  2.5817E+00
  7.6100E-01  1.4181E+00  1.1669E+00  2.5850E+00
  7.6200E-01  1.4204E+00  1.1664E+00  2.5868E+00
  7.6300E-01  1.4227E+00  1.1660E+00  2.5887E+00
  7.6400E-01  1.4250E+00  1.1655E+00  2.5905E+00
  7.6500E-01  1.4273E+00  1.1650E+00  2.5924E+00
  7.6600E-01  1.4297E+00  1.1646E+00  2.5942E+00
  7.6700E-01  1.4320E+00  1.1641E+00  2.5961E+00
  7.6800E-01  1.4344E+00  1.1636E+00  2.5980E+00
  7.6900E-01  1.4368E+00  1.1631E+00  2.5999E+00
  7.7000E-01  1.4392E+00  1.1626E+00  2.6018E+00
  7.7100E-01  1.4416E+00  1.1621E+00  2.6037E+00
  7.7200E-01  1.4440E+00  1.1616E+00  2.6056E+00
  7.7300E-01  1.4464E+00  1.1611E+00  2.6076E+00
  7.7400E-01  1.4486E+00  1.1607E+00  2.6092E+00
  7.7500E-01  1.4505E+00  1.1602E+00  2.6107E+00
  7.7600E-01  1.4525E+00  1.1597E+00  2.6122E+00
  7.7700E-01  1.4545E+00  1.1592E+00  2.6137E+00
  7.7800E-01  1.4565E+00  1.1587E+00  2.6153E+00
  7.7900E-01  1.4586E+00  1.1583E+00  2.6168E+00
  7.8000E-01  1.4606E+00  1.1578E+00  2.6184E+00
  7.8100E-01  1.4627E+00  1.1573E+00  2.6199E+00
  7.8200E-01  1.4648E+00  1.1567E+00  2.6215E+00
  7.8300E-01  1.4669E+00  1.1562E+00  2.6231E+00
  7.8400E-01  1.4690E+00  1.1557E+00  2.6247E+00
  7.8500E-01  1.4711E+00  1.1552E+00  2.6263E+00
  7.8600E-01  1.4732E+00  1.1547E+00  2.6279E+00
  7.8700E-01  1.4749E+00  1.1542E+00  2.6291E+00
  7.8800E-01  1.4766E+00  1.1537E+00  2.6303E+00
  7.8900E-01  1.4783E+00  1.1532E+00  2.6315E+00
  7.9000E-01  1.4801E+00  1.1527E+00  2.6328E+00
  7.9100E-01  1.4818E+00  1.1522E+00  2.6341E+00
  7.9200E-01  1.4836E+00  1.1517E+00  2.6353E+00
  7.9300E-01  1.4854E+00  1.1512E+00  2.6366E+00
  7.9400E-01  1.4872E+00  1.1507E+00  2.6379E+00
  7.9500E-01  1.4890E+00  1.1502E+00  2.6392E+00
  7.9600E-01  1.4909E+00  1.1496E+00  2.6405E+00
  7.9700E-01  1.4927E+00  1.1491E+00  2.6418E+00
  7.9800E-01  1.4946E+00  1.1486E+00  2.6432E+00
  7.9900E-01  1.4961E+00  1.1481E+00  2.6442E+00
